'*',    13,     3,     4,     0,     5,     5,    46,     2
'OMNIDIRECTIONAL FLUENCE ANALYSIS'
'MULASSIS ml-v01-19'
'geant4-09-02-ref-00 (19-December-2008)'
'FLU_BDY', 1, 2, ' '
'FLU_PAR, -1, proton  '
'FLU_AMN', 1, 0., 'deg'
'FLU_AMX', 1, 90., 'deg'
'Elo','keV', 1, ' Lower edge of energy    bin '
'Eup','keV', 1, ' Upper edge of energy    bin '
'Emean','keV', 1, ' Mean energy of bin '
'Value','particles/cm2/bin',1,             'Fluence/flux'
'Error','particles/cm2/bin',1,'Error in   fluence/flux'
  0.000000E+00,   4.000000E+01,   2.000000E+01,   2.184357E+05,   0.000000E+00
  4.000000E+01,   1.000000E+02,   7.000000E+01,   3.276535E+05,   0.000000E+00
  1.000000E+02,   2.000000E+02,   1.500000E+02,   5.460892E+05,   0.000000E+00
  2.000000E+02,   3.000000E+02,   2.500000E+02,   5.460892E+05,   0.000000E+00
  3.000000E+02,   4.000000E+02,   3.500000E+02,   5.460892E+05,   0.000000E+00
  4.000000E+02,   5.000000E+02,   4.500000E+02,   5.460892E+05,   0.000000E+00
  5.000000E+02,   6.000000E+02,   5.500000E+02,   5.611167E+05,   0.000000E+00
  6.000000E+02,   7.000000E+02,   6.500000E+02,   6.476922E+05,   0.000000E+00
  7.000000E+02,   8.000000E+02,   7.500000E+02,   6.476922E+05,   0.000000E+00
  8.000000E+02,   1.000000E+03,   9.000000E+02,   1.463983E+06,   0.000000E+00
  1.000000E+03,   1.250000E+03,   1.125000E+03,   2.120591E+06,   0.000000E+00
  1.250000E+03,   1.500000E+03,   1.375000E+03,   2.522463E+06,   0.000000E+00
  1.500000E+03,   1.750000E+03,   1.625000E+03,   2.791315E+06,   0.000000E+00
  1.750000E+03,   2.000000E+03,   1.875000E+03,   3.267315E+06,   0.000000E+00
  2.000000E+03,   2.250000E+03,   2.125000E+03,   3.460559E+06,   0.000000E+00
  2.250000E+03,   2.500000E+03,   2.375000E+03,   3.789473E+06,   0.000000E+00
  2.500000E+03,   2.750000E+03,   2.625000E+03,   4.261712E+06,   0.000000E+00
  2.750000E+03,   3.000000E+03,   2.875000E+03,   4.435126E+06,   0.000000E+00
  3.000000E+03,   3.250000E+03,   3.125000E+03,   4.837695E+06,   0.000000E+00
  3.250000E+03,   3.500000E+03,   3.375000E+03,   5.225753E+06,   0.000000E+00
  3.500000E+03,   3.750000E+03,   3.625000E+03,   5.678535E+06,   0.000000E+00
  3.750000E+03,   4.000000E+03,   3.875000E+03,   5.837448E+06,   0.000000E+00
  4.000000E+03,   4.250000E+03,   4.125000E+03,   6.349086E+06,   0.000000E+00
  4.250000E+03,   4.500000E+03,   4.375000E+03,   6.912665E+06,   0.000000E+00
  4.500000E+03,   4.750000E+03,   4.625000E+03,   7.156608E+06,   0.000000E+00
  4.750000E+03,   5.000000E+03,   4.875000E+03,   7.646396E+06,   0.000000E+00
  5.000000E+03,   5.500000E+03,   5.250000E+03,   1.699563E+07,   0.000000E+00
  5.500000E+03,   6.000000E+03,   5.750000E+03,   1.900821E+07,   0.000000E+00
  6.000000E+03,   6.500000E+03,   6.250000E+03,   2.138911E+07,   0.000000E+00
  6.500000E+03,   7.000000E+03,   6.750000E+03,   2.483648E+07,   0.000000E+00
  7.000000E+03,   1.000000E+04,   8.500000E+03,   2.044465E+08,   0.000000E+00
  1.000000E+04,   2.000000E+04,   1.500000E+04,   7.277788E+08,   0.000000E+00
  2.000000E+04,   3.000000E+04,   2.500000E+04,   5.506776E+08,   0.000000E+00
  3.000000E+04,   4.000000E+04,   3.500000E+04,   4.174199E+08,   0.000000E+00
  4.000000E+04,   5.000000E+04,   4.500000E+04,   3.034036E+08,   0.000000E+00
  5.000000E+04,   6.000000E+04,   5.500000E+04,   2.272080E+08,   0.000000E+00
  6.000000E+04,   7.000000E+04,   6.500000E+04,   1.379754E+08,   0.000000E+00
  7.000000E+04,   8.000000E+04,   7.500000E+04,   1.172635E+08,   0.000000E+00
  8.000000E+04,   1.000000E+05,   9.000000E+04,   1.482965E+08,   0.000000E+00
  1.000000E+05,   1.500000E+05,   1.250000E+05,   1.252528E+08,   0.000000E+00
  1.500000E+05,   2.000000E+05,   1.750000E+05,   4.580449E+07,   0.000000E+00
  2.000000E+05,   3.000000E+05,   2.500000E+05,   3.466768E+07,   0.000000E+00
  3.000000E+05,   4.000000E+05,   3.500000E+05,   8.865402E+06,   0.000000E+00
  4.000000E+05,   5.000000E+05,   4.500000E+05,   2.320878E+06,   0.000000E+00
  5.000000E+05,   8.000000E+05,   6.500000E+05,   8.985277E+05,   0.000000E+00
  8.000000E+05,   1.000000E+06,   0.000000E+00,   0.000000E+00,   0.000000E+00
'End of Block'
'*',    13,     3,     4,     0,     5,     5,    46,     1
'OMNIDIRECTIONAL FLUENCE ANALYSIS'
'MULASSIS ml-v01-19'
'geant4-09-02-ref-00 (19-December-2008)'
'FLU_BDY', 1, 2, ' '
'FLU_PAR, -1, e-      '
'FLU_AMN', 1, 0., 'deg'
'FLU_AMX', 1, 90., 'deg'
'Elo','keV', 1, ' Lower edge of energy    bin '
'Eup','keV', 1, ' Upper edge of energy    bin '
'Emean','keV', 1, ' Mean energy of bin '
'Value','particles/cm2/bin',1,             'Fluence/flux'
'Error','particles/cm2/bin',1,'Error in   fluence/flux'
  0.000000E+00,   4.000000E+01,   2.000000E+01,   1.351987E+11,   0.000000E+00
  4.000000E+01,   1.000000E+02,   7.000000E+01,   1.470834E+11,   0.000000E+00
  1.000000E+02,   2.000000E+02,   1.500000E+02,   2.132986E+11,   0.000000E+00
  2.000000E+02,   3.000000E+02,   2.500000E+02,   2.612183E+11,   0.000000E+00
  3.000000E+02,   4.000000E+02,   3.500000E+02,   3.142637E+11,   0.000000E+00
  4.000000E+02,   5.000000E+02,   4.500000E+02,   3.477078E+11,   0.000000E+00
  5.000000E+02,   6.000000E+02,   5.500000E+02,   3.533772E+11,   0.000000E+00
  6.000000E+02,   7.000000E+02,   6.500000E+02,   3.308208E+11,   0.000000E+00
  7.000000E+02,   8.000000E+02,   7.500000E+02,   2.999482E+11,   0.000000E+00
  8.000000E+02,   1.000000E+03,   9.000000E+02,   5.103172E+11,   0.000000E+00
  1.000000E+03,   1.250000E+03,   1.125000E+03,   4.987411E+11,   0.000000E+00
  1.250000E+03,   1.500000E+03,   1.375000E+03,   3.338345E+11,   0.000000E+00
  1.500000E+03,   1.750000E+03,   1.625000E+03,   1.882807E+11,   0.000000E+00
  1.750000E+03,   2.000000E+03,   1.875000E+03,   1.001450E+11,   0.000000E+00
  2.000000E+03,   2.250000E+03,   2.125000E+03,   5.686335E+10,   0.000000E+00
  2.250000E+03,   2.500000E+03,   2.375000E+03,   3.124585E+10,   0.000000E+00
  2.500000E+03,   2.750000E+03,   2.625000E+03,   1.856404E+10,   0.000000E+00
  2.750000E+03,   3.000000E+03,   2.875000E+03,   1.140237E+10,   0.000000E+00
  3.000000E+03,   3.250000E+03,   3.125000E+03,   6.277070E+09,   0.000000E+00
  3.250000E+03,   3.500000E+03,   3.375000E+03,   3.334128E+09,   0.000000E+00
  3.500000E+03,   3.750000E+03,   3.625000E+03,   1.798224E+09,   0.000000E+00
  3.750000E+03,   4.000000E+03,   3.875000E+03,   8.350450E+08,   0.000000E+00
  4.000000E+03,   4.250000E+03,   4.125000E+03,   2.324366E+08,   0.000000E+00
  4.250000E+03,   4.500000E+03,   4.375000E+03,   3.886073E+07,   0.000000E+00
  4.500000E+03,   4.750000E+03,   4.625000E+03,   1.100802E+06,   0.000000E+00
  4.750000E+03,   5.000000E+03,   4.875000E+03,   9.048509E+03,   0.000000E+00
  5.000000E+03,   5.500000E+03,   5.250000E+03,   1.741996E+04,   0.000000E+00
  5.500000E+03,   6.000000E+03,   5.750000E+03,   1.741996E+04,   0.000000E+00
  6.000000E+03,   6.500000E+03,   6.250000E+03,   1.741996E+04,   0.000000E+00
  6.500000E+03,   7.000000E+03,   6.750000E+03,   1.741996E+04,   0.000000E+00
  7.000000E+03,   1.000000E+04,   8.500000E+03,   1.045197E+05,   0.000000E+00
  1.000000E+04,   2.000000E+04,   1.500000E+04,   3.483991E+05,   0.000000E+00
  2.000000E+04,   3.000000E+04,   2.500000E+04,   2.036995E+05,   0.000000E+00
  3.000000E+04,   4.000000E+04,   3.500000E+04,   6.507558E+04,   0.000000E+00
  4.000000E+04,   5.000000E+04,   4.500000E+04,   2.709744E+04,   0.000000E+00
  5.000000E+04,   6.000000E+04,   5.500000E+04,   1.410716E+04,   0.000000E+00
  6.000000E+04,   7.000000E+04,   6.500000E+04,   8.036949E+03,   0.000000E+00
  7.000000E+04,   8.000000E+04,   7.500000E+04,   4.571627E+03,   0.000000E+00
  8.000000E+04,   1.000000E+05,   9.000000E+04,   4.800355E+03,   0.000000E+00
  1.000000E+05,   1.500000E+05,   1.250000E+05,   4.314542E+03,   0.000000E+00
  1.500000E+05,   2.000000E+05,   1.750000E+05,   1.207695E+03,   0.000000E+00
  2.000000E+05,   3.000000E+05,   2.500000E+05,   6.216172E+02,   0.000000E+00
  3.000000E+05,   4.000000E+05,   3.500000E+05,   1.669801E+02,   0.000000E+00
  4.000000E+05,   5.000000E+05,   4.500000E+05,   5.146079E+01,   0.000000E+00
  5.000000E+05,   8.000000E+05,   6.500000E+05,   6.728082E+00,   0.000000E+00
  8.000000E+05,   1.000000E+06,   0.000000E+00,   0.000000E+00,   0.000000E+00
'End of Block'
'*',    13,     3,     4,     0,     5,     5,    46,    -1
'OMNIDIRECTIONAL FLUENCE ANALYSIS'
'MULASSIS ml-v01-19'
'geant4-09-02-ref-00 (19-December-2008)'
'FLU_BDY', 1, 2, ' '
'FLU_PAR, -1, neutron '
'FLU_AMN', 1, 0., 'deg'
'FLU_AMX', 1, 90., 'deg'
'Elo','keV', 1, ' Lower edge of energy    bin '
'Eup','keV', 1, ' Upper edge of energy    bin '
'Emean','keV', 1, ' Mean energy of bin '
'Value','particles/cm2/bin',1,             'Fluence/flux'
'Error','particles/cm2/bin',1,'Error in   fluence/flux'
  0.000000E+00,   4.000000E+01,   2.000000E+01,   2.235408E+05,   0.000000E+00
  4.000000E+01,   1.000000E+02,   7.000000E+01,   3.353112E+05,   0.000000E+00
  1.000000E+02,   2.000000E+02,   1.500000E+02,   5.588520E+05,   0.000000E+00
  2.000000E+02,   3.000000E+02,   2.500000E+02,   5.588520E+05,   0.000000E+00
  3.000000E+02,   4.000000E+02,   3.500000E+02,   5.588520E+05,   0.000000E+00
  4.000000E+02,   5.000000E+02,   4.500000E+02,   5.588520E+05,   0.000000E+00
  5.000000E+02,   6.000000E+02,   5.500000E+02,   5.562494E+05,   0.000000E+00
  6.000000E+02,   7.000000E+02,   6.500000E+02,   5.412555E+05,   0.000000E+00
  7.000000E+02,   8.000000E+02,   7.500000E+02,   5.412555E+05,   0.000000E+00
  8.000000E+02,   1.000000E+03,   9.000000E+02,   1.053324E+06,   0.000000E+00
  1.000000E+03,   1.250000E+03,   1.125000E+03,   1.267170E+06,   0.000000E+00
  1.250000E+03,   1.500000E+03,   1.375000E+03,   1.199270E+06,   0.000000E+00
  1.500000E+03,   1.750000E+03,   1.625000E+03,   1.145705E+06,   0.000000E+00
  1.750000E+03,   2.000000E+03,   1.875000E+03,   1.060883E+06,   0.000000E+00
  2.000000E+03,   2.250000E+03,   2.125000E+03,   1.006181E+06,   0.000000E+00
  2.250000E+03,   2.500000E+03,   2.375000E+03,   9.475976E+05,   0.000000E+00
  2.500000E+03,   2.750000E+03,   2.625000E+03,   8.703173E+05,   0.000000E+00
  2.750000E+03,   3.000000E+03,   2.875000E+03,   8.338370E+05,   0.000000E+00
  3.000000E+03,   3.250000E+03,   3.125000E+03,   7.674534E+05,   0.000000E+00
  3.250000E+03,   3.500000E+03,   3.375000E+03,   7.195769E+05,   0.000000E+00
  3.500000E+03,   3.750000E+03,   3.625000E+03,   6.777715E+05,   0.000000E+00
  3.750000E+03,   4.000000E+03,   3.875000E+03,   6.390963E+05,   0.000000E+00
  4.000000E+03,   4.250000E+03,   4.125000E+03,   6.019083E+05,   0.000000E+00
  4.250000E+03,   4.500000E+03,   4.375000E+03,   5.571191E+05,   0.000000E+00
  4.500000E+03,   4.750000E+03,   4.625000E+03,   5.360504E+05,   0.000000E+00
  4.750000E+03,   5.000000E+03,   4.875000E+03,   4.986001E+05,   0.000000E+00
  5.000000E+03,   5.500000E+03,   5.250000E+03,   9.209874E+05,   0.000000E+00
  5.500000E+03,   6.000000E+03,   5.750000E+03,   8.314269E+05,   0.000000E+00
  6.000000E+03,   6.500000E+03,   6.250000E+03,   7.374954E+05,   0.000000E+00
  6.500000E+03,   7.000000E+03,   6.750000E+03,   6.684151E+05,   0.000000E+00
  7.000000E+03,   1.000000E+04,   8.500000E+03,   2.961639E+06,   0.000000E+00
  1.000000E+04,   2.000000E+04,   1.500000E+04,   4.563542E+06,   0.000000E+00
  2.000000E+04,   3.000000E+04,   2.500000E+04,   2.029060E+06,   0.000000E+00
  3.000000E+04,   4.000000E+04,   3.500000E+04,   1.111722E+06,   0.000000E+00
  4.000000E+04,   5.000000E+04,   4.500000E+04,   6.633946E+05,   0.000000E+00
  5.000000E+04,   6.000000E+04,   5.500000E+04,   4.156228E+05,   0.000000E+00
  6.000000E+04,   7.000000E+04,   6.500000E+04,   2.663361E+05,   0.000000E+00
  7.000000E+04,   8.000000E+04,   7.500000E+04,   1.784448E+05,   0.000000E+00
  8.000000E+04,   1.000000E+05,   9.000000E+04,   2.183256E+05,   0.000000E+00
  1.000000E+05,   1.500000E+05,   1.250000E+05,   2.499627E+05,   0.000000E+00
  1.500000E+05,   2.000000E+05,   1.750000E+05,   9.836175E+04,   0.000000E+00
  2.000000E+05,   3.000000E+05,   2.500000E+05,   6.051560E+04,   0.000000E+00
  3.000000E+05,   4.000000E+05,   3.500000E+05,   1.031048E+04,   0.000000E+00
  4.000000E+05,   5.000000E+05,   4.500000E+05,   2.459450E+03,   0.000000E+00
  5.000000E+05,   8.000000E+05,   6.500000E+05,   2.030721E+02,   0.000000E+00
  8.000000E+05,   1.000000E+06,   0.000000E+00,   0.000000E+00,   0.000000E+00
'End of File'
