'*',    13,     3,     4,     0,     5,     5,    46,     2
'OMNIDIRECTIONAL FLUENCE ANALYSIS'
'MULASSIS ml-v01-19'
'geant4-09-02-ref-00 (19-December-2008)'
'FLU_BDY', 1, 2, ' '
'FLU_PAR, -1, proton  '
'FLU_AMN', 1, 0., 'deg'
'FLU_AMX', 1, 90., 'deg'
'Elo','keV', 1, ' Lower edge of energy    bin '
'Eup','keV', 1, ' Upper edge of energy    bin '
'Emean','keV', 1, ' Mean energy of bin '
'Value','particles/cm2/bin',1,             'Fluence/flux'
'Error','particles/cm2/bin',1,'Error in   fluence/flux'
  0.000000E+00,   4.000000E+01,   2.000000E+01,   2.406933E+05,   0.000000E+00
  4.000000E+01,   1.000000E+02,   7.000000E+01,   3.610399E+05,   0.000000E+00
  1.000000E+02,   2.000000E+02,   1.500000E+02,   6.017332E+05,   0.000000E+00
  2.000000E+02,   3.000000E+02,   2.500000E+02,   6.017332E+05,   0.000000E+00
  3.000000E+02,   4.000000E+02,   3.500000E+02,   6.017332E+05,   0.000000E+00
  4.000000E+02,   5.000000E+02,   4.500000E+02,   6.017332E+05,   0.000000E+00
  5.000000E+02,   6.000000E+02,   5.500000E+02,   6.173533E+05,   0.000000E+00
  6.000000E+02,   7.000000E+02,   6.500000E+02,   7.073426E+05,   0.000000E+00
  7.000000E+02,   8.000000E+02,   7.500000E+02,   7.073426E+05,   0.000000E+00
  8.000000E+02,   1.000000E+03,   9.000000E+02,   1.591062E+06,   0.000000E+00
  1.000000E+03,   1.250000E+03,   1.125000E+03,   2.293454E+06,   0.000000E+00
  1.250000E+03,   1.500000E+03,   1.375000E+03,   2.715895E+06,   0.000000E+00
  1.500000E+03,   1.750000E+03,   1.625000E+03,   3.004363E+06,   0.000000E+00
  1.750000E+03,   2.000000E+03,   1.875000E+03,   3.507318E+06,   0.000000E+00
  2.000000E+03,   2.250000E+03,   2.125000E+03,   3.715672E+06,   0.000000E+00
  2.250000E+03,   2.500000E+03,   2.375000E+03,   4.064720E+06,   0.000000E+00
  2.500000E+03,   2.750000E+03,   2.625000E+03,   4.564795E+06,   0.000000E+00
  2.750000E+03,   3.000000E+03,   2.875000E+03,   4.750450E+06,   0.000000E+00
  3.000000E+03,   3.250000E+03,   3.125000E+03,   5.183026E+06,   0.000000E+00
  3.250000E+03,   3.500000E+03,   3.375000E+03,   5.594910E+06,   0.000000E+00
  3.500000E+03,   3.750000E+03,   3.625000E+03,   6.073643E+06,   0.000000E+00
  3.750000E+03,   4.000000E+03,   3.875000E+03,   6.248652E+06,   0.000000E+00
  4.000000E+03,   4.250000E+03,   4.125000E+03,   6.788455E+06,   0.000000E+00
  4.250000E+03,   4.500000E+03,   4.375000E+03,   7.385893E+06,   0.000000E+00
  4.500000E+03,   4.750000E+03,   4.625000E+03,   7.647384E+06,   0.000000E+00
  4.750000E+03,   5.000000E+03,   4.875000E+03,   8.169001E+06,   0.000000E+00
  5.000000E+03,   5.500000E+03,   5.250000E+03,   1.813378E+07,   0.000000E+00
  5.500000E+03,   6.000000E+03,   5.750000E+03,   2.025741E+07,   0.000000E+00
  6.000000E+03,   6.500000E+03,   6.250000E+03,   2.277784E+07,   0.000000E+00
  6.500000E+03,   7.000000E+03,   6.750000E+03,   2.639999E+07,   0.000000E+00
  7.000000E+03,   1.000000E+04,   8.500000E+03,   2.169162E+08,   0.000000E+00
  1.000000E+04,   2.000000E+04,   1.500000E+04,   7.858174E+08,   0.000000E+00
  2.000000E+04,   3.000000E+04,   2.500000E+04,   6.239810E+08,   0.000000E+00
  3.000000E+04,   4.000000E+04,   3.500000E+04,   5.055646E+08,   0.000000E+00
  4.000000E+04,   5.000000E+04,   4.500000E+04,   4.073551E+08,   0.000000E+00
  5.000000E+04,   6.000000E+04,   5.500000E+04,   3.478391E+08,   0.000000E+00
  6.000000E+04,   7.000000E+04,   6.500000E+04,   2.475011E+08,   0.000000E+00
  7.000000E+04,   8.000000E+04,   7.500000E+04,   2.335455E+08,   0.000000E+00
  8.000000E+04,   1.000000E+05,   9.000000E+04,   3.561157E+08,   0.000000E+00
  1.000000E+05,   1.500000E+05,   1.250000E+05,   4.402287E+08,   0.000000E+00
  1.500000E+05,   2.000000E+05,   1.750000E+05,   2.038754E+08,   0.000000E+00
  2.000000E+05,   3.000000E+05,   2.500000E+05,   1.629747E+08,   0.000000E+00
  3.000000E+05,   4.000000E+05,   3.500000E+05,   2.036420E+07,   0.000000E+00
  4.000000E+05,   5.000000E+05,   4.500000E+05,   2.320878E+06,   0.000000E+00
  5.000000E+05,   8.000000E+05,   6.500000E+05,   8.985277E+05,   0.000000E+00
  8.000000E+05,   1.000000E+06,   0.000000E+00,   0.000000E+00,   0.000000E+00
'End of Block'
'*',    13,     3,     4,     0,     5,     5,    46,     1
'OMNIDIRECTIONAL FLUENCE ANALYSIS'
'MULASSIS ml-v01-19'
'geant4-09-02-ref-00 (19-December-2008)'
'FLU_BDY', 1, 2, ' '
'FLU_PAR, -1, e-      '
'FLU_AMN', 1, 0., 'deg'
'FLU_AMX', 1, 90., 'deg'
'Elo','keV', 1, ' Lower edge of energy    bin '
'Eup','keV', 1, ' Upper edge of energy    bin '
'Emean','keV', 1, ' Mean energy of bin '
'Value','particles/cm2/bin',1,             'Fluence/flux'
'Error','particles/cm2/bin',1,'Error in   fluence/flux'
  0.000000E+00,   4.000000E+01,   2.000000E+01,   8.600484E+08,   0.000000E+00
  4.000000E+01,   1.000000E+02,   7.000000E+01,   5.975358E+08,   0.000000E+00
  1.000000E+02,   2.000000E+02,   1.500000E+02,   7.098244E+08,   0.000000E+00
  2.000000E+02,   3.000000E+02,   2.500000E+02,   7.381899E+08,   0.000000E+00
  3.000000E+02,   4.000000E+02,   3.500000E+02,   8.507047E+08,   0.000000E+00
  4.000000E+02,   5.000000E+02,   4.500000E+02,   9.640469E+08,   0.000000E+00
  5.000000E+02,   6.000000E+02,   5.500000E+02,   1.047856E+09,   0.000000E+00
  6.000000E+02,   7.000000E+02,   6.500000E+02,   1.088980E+09,   0.000000E+00
  7.000000E+02,   8.000000E+02,   7.500000E+02,   1.105787E+09,   0.000000E+00
  8.000000E+02,   1.000000E+03,   9.000000E+02,   2.108883E+09,   0.000000E+00
  1.000000E+03,   1.250000E+03,   1.125000E+03,   2.307026E+09,   0.000000E+00
  1.250000E+03,   1.500000E+03,   1.375000E+03,   1.840967E+09,   0.000000E+00
  1.500000E+03,   1.750000E+03,   1.625000E+03,   1.411804E+09,   0.000000E+00
  1.750000E+03,   2.000000E+03,   1.875000E+03,   1.002219E+09,   0.000000E+00
  2.000000E+03,   2.250000E+03,   2.125000E+03,   6.285431E+08,   0.000000E+00
  2.250000E+03,   2.500000E+03,   2.375000E+03,   3.683998E+08,   0.000000E+00
  2.500000E+03,   2.750000E+03,   2.625000E+03,   2.136636E+08,   0.000000E+00
  2.750000E+03,   3.000000E+03,   2.875000E+03,   1.274343E+08,   0.000000E+00
  3.000000E+03,   3.250000E+03,   3.125000E+03,   7.446249E+07,   0.000000E+00
  3.250000E+03,   3.500000E+03,   3.375000E+03,   4.270292E+07,   0.000000E+00
  3.500000E+03,   3.750000E+03,   3.625000E+03,   2.341138E+07,   0.000000E+00
  3.750000E+03,   4.000000E+03,   3.875000E+03,   1.273251E+07,   0.000000E+00
  4.000000E+03,   4.250000E+03,   4.125000E+03,   6.835372E+06,   0.000000E+00
  4.250000E+03,   4.500000E+03,   4.375000E+03,   3.521501E+06,   0.000000E+00
  4.500000E+03,   4.750000E+03,   4.625000E+03,   1.664847E+06,   0.000000E+00
  4.750000E+03,   5.000000E+03,   4.875000E+03,   7.238426E+05,   0.000000E+00
  5.000000E+03,   5.500000E+03,   5.250000E+03,   3.661556E+05,   0.000000E+00
  5.500000E+03,   6.000000E+03,   5.750000E+03,   2.307282E+04,   0.000000E+00
  6.000000E+03,   6.500000E+03,   6.250000E+03,   1.918501E+04,   0.000000E+00
  6.500000E+03,   7.000000E+03,   6.750000E+03,   1.918501E+04,   0.000000E+00
  7.000000E+03,   1.000000E+04,   8.500000E+03,   1.151101E+05,   0.000000E+00
  1.000000E+04,   2.000000E+04,   1.500000E+04,   3.837002E+05,   0.000000E+00
  2.000000E+04,   3.000000E+04,   2.500000E+04,   2.326016E+05,   0.000000E+00
  3.000000E+04,   4.000000E+04,   3.500000E+04,   8.500753E+04,   0.000000E+00
  4.000000E+04,   5.000000E+04,   4.500000E+04,   4.219656E+04,   0.000000E+00
  5.000000E+04,   6.000000E+04,   5.500000E+04,   2.608270E+04,   0.000000E+00
  6.000000E+04,   7.000000E+04,   6.500000E+04,   1.751872E+04,   0.000000E+00
  7.000000E+04,   8.000000E+04,   7.500000E+04,   1.172379E+04,   0.000000E+00
  8.000000E+04,   1.000000E+05,   9.000000E+04,   1.499142E+04,   0.000000E+00
  1.000000E+05,   1.500000E+05,   1.250000E+05,   1.675908E+04,   0.000000E+00
  1.500000E+05,   2.000000E+05,   1.750000E+05,   5.213714E+03,   0.000000E+00
  2.000000E+05,   3.000000E+05,   2.500000E+05,   2.071021E+03,   0.000000E+00
  3.000000E+05,   4.000000E+05,   3.500000E+05,   1.383633E+02,   0.000000E+00
  4.000000E+05,   5.000000E+05,   4.500000E+05,   5.146079E+01,   0.000000E+00
  5.000000E+05,   8.000000E+05,   6.500000E+05,   6.728082E+00,   0.000000E+00
  8.000000E+05,   1.000000E+06,   0.000000E+00,   0.000000E+00,   0.000000E+00
'End of Block'
'*',    13,     3,     4,     0,     5,     5,    46,    -1
'OMNIDIRECTIONAL FLUENCE ANALYSIS'
'MULASSIS ml-v01-19'
'geant4-09-02-ref-00 (19-December-2008)'
'FLU_BDY', 1, 2, ' '
'FLU_PAR, -1, neutron '
'FLU_AMN', 1, 0., 'deg'
'FLU_AMX', 1, 90., 'deg'
'Elo','keV', 1, ' Lower edge of energy    bin '
'Eup','keV', 1, ' Upper edge of energy    bin '
'Emean','keV', 1, ' Mean energy of bin '
'Value','particles/cm2/bin',1,             'Fluence/flux'
'Error','particles/cm2/bin',1,'Error in   fluence/flux'
  0.000000E+00,   4.000000E+01,   2.000000E+01,   2.852928E+05,   0.000000E+00
  4.000000E+01,   1.000000E+02,   7.000000E+01,   4.279393E+05,   0.000000E+00
  1.000000E+02,   2.000000E+02,   1.500000E+02,   7.132321E+05,   0.000000E+00
  2.000000E+02,   3.000000E+02,   2.500000E+02,   7.132321E+05,   0.000000E+00
  3.000000E+02,   4.000000E+02,   3.500000E+02,   7.132321E+05,   0.000000E+00
  4.000000E+02,   5.000000E+02,   4.500000E+02,   7.132321E+05,   0.000000E+00
  5.000000E+02,   6.000000E+02,   5.500000E+02,   7.105269E+05,   0.000000E+00
  6.000000E+02,   7.000000E+02,   6.500000E+02,   6.949418E+05,   0.000000E+00
  7.000000E+02,   8.000000E+02,   7.500000E+02,   6.949418E+05,   0.000000E+00
  8.000000E+02,   1.000000E+03,   9.000000E+02,   1.359350E+06,   0.000000E+00
  1.000000E+03,   1.250000E+03,   1.125000E+03,   1.647308E+06,   0.000000E+00
  1.250000E+03,   1.500000E+03,   1.375000E+03,   1.575912E+06,   0.000000E+00
  1.500000E+03,   1.750000E+03,   1.625000E+03,   1.518272E+06,   0.000000E+00
  1.750000E+03,   2.000000E+03,   1.875000E+03,   1.427522E+06,   0.000000E+00
  2.000000E+03,   2.250000E+03,   2.125000E+03,   1.367485E+06,   0.000000E+00
  2.250000E+03,   2.500000E+03,   2.375000E+03,   1.302593E+06,   0.000000E+00
  2.500000E+03,   2.750000E+03,   2.625000E+03,   1.217700E+06,   0.000000E+00
  2.750000E+03,   3.000000E+03,   2.875000E+03,   1.175871E+06,   0.000000E+00
  3.000000E+03,   3.250000E+03,   3.125000E+03,   1.097233E+06,   0.000000E+00
  3.250000E+03,   3.500000E+03,   3.375000E+03,   1.042102E+06,   0.000000E+00
  3.500000E+03,   3.750000E+03,   3.625000E+03,   9.933675E+05,   0.000000E+00
  3.750000E+03,   4.000000E+03,   3.875000E+03,   9.426491E+05,   0.000000E+00
  4.000000E+03,   4.250000E+03,   4.125000E+03,   8.998579E+05,   0.000000E+00
  4.250000E+03,   4.500000E+03,   4.375000E+03,   8.418371E+05,   0.000000E+00
  4.500000E+03,   4.750000E+03,   4.625000E+03,   8.158056E+05,   0.000000E+00
  4.750000E+03,   5.000000E+03,   4.875000E+03,   7.639200E+05,   0.000000E+00
  5.000000E+03,   5.500000E+03,   5.250000E+03,   1.431923E+06,   0.000000E+00
  5.500000E+03,   6.000000E+03,   5.750000E+03,   1.313654E+06,   0.000000E+00
  6.000000E+03,   6.500000E+03,   6.250000E+03,   1.188346E+06,   0.000000E+00
  6.500000E+03,   7.000000E+03,   6.750000E+03,   1.083040E+06,   0.000000E+00
  7.000000E+03,   1.000000E+04,   8.500000E+03,   4.976851E+06,   0.000000E+00
  1.000000E+04,   2.000000E+04,   1.500000E+04,   8.165257E+06,   0.000000E+00
  2.000000E+04,   3.000000E+04,   2.500000E+04,   3.944465E+06,   0.000000E+00
  3.000000E+04,   4.000000E+04,   3.500000E+04,   2.406747E+06,   0.000000E+00
  4.000000E+04,   5.000000E+04,   4.500000E+04,   1.600523E+06,   0.000000E+00
  5.000000E+04,   6.000000E+04,   5.500000E+04,   1.125861E+06,   0.000000E+00
  6.000000E+04,   7.000000E+04,   6.500000E+04,   8.054563E+05,   0.000000E+00
  7.000000E+04,   8.000000E+04,   7.500000E+04,   5.960506E+05,   0.000000E+00
  8.000000E+04,   1.000000E+05,   9.000000E+04,   8.138824E+05,   0.000000E+00
  1.000000E+05,   1.500000E+05,   1.250000E+05,   1.013679E+06,   0.000000E+00
  1.500000E+05,   2.000000E+05,   1.750000E+05,   4.151839E+05,   0.000000E+00
  2.000000E+05,   3.000000E+05,   2.500000E+05,   2.040907E+05,   0.000000E+00
  3.000000E+05,   4.000000E+05,   3.500000E+05,   7.211802E+03,   0.000000E+00
  4.000000E+05,   5.000000E+05,   4.500000E+05,   2.459450E+03,   0.000000E+00
  5.000000E+05,   8.000000E+05,   6.500000E+05,   2.030721E+02,   0.000000E+00
  8.000000E+05,   1.000000E+06,   0.000000E+00,   0.000000E+00,   0.000000E+00
'End of File'
