'*',    13,     3,     4,     0,     5,     5,    46,     2
'OMNIDIRECTIONAL FLUENCE ANALYSIS'
'MULASSIS ml-v01-19'
'geant4-09-02-ref-00 (19-December-2008)'
'FLU_BDY', 1, 2, ' '
'FLU_PAR, -1, proton  '
'FLU_AMN', 1, 0., 'deg'
'FLU_AMX', 1, 90., 'deg'
'Elo','keV', 1, ' Lower edge of energy    bin '
'Eup','keV', 1, ' Upper edge of energy    bin '
'Emean','keV', 1, ' Mean energy of bin '
'Value','particles/cm2/bin',1,             'Fluence/flux'
'Error','particles/cm2/bin',1,'Error in   fluence/flux'
  0.000000E+00,   4.000000E+01,   2.000000E+01,   2.449518E+05,   0.000000E+00
  4.000000E+01,   1.000000E+02,   7.000000E+01,   3.674276E+05,   0.000000E+00
  1.000000E+02,   2.000000E+02,   1.500000E+02,   6.123794E+05,   0.000000E+00
  2.000000E+02,   3.000000E+02,   2.500000E+02,   6.123794E+05,   0.000000E+00
  3.000000E+02,   4.000000E+02,   3.500000E+02,   6.123794E+05,   0.000000E+00
  4.000000E+02,   5.000000E+02,   4.500000E+02,   6.123794E+05,   0.000000E+00
  5.000000E+02,   6.000000E+02,   5.500000E+02,   6.283253E+05,   0.000000E+00
  6.000000E+02,   7.000000E+02,   6.500000E+02,   7.201922E+05,   0.000000E+00
  7.000000E+02,   8.000000E+02,   7.500000E+02,   7.201922E+05,   0.000000E+00
  8.000000E+02,   1.000000E+03,   9.000000E+02,   1.620848E+06,   0.000000E+00
  1.000000E+03,   1.250000E+03,   1.125000E+03,   2.337887E+06,   0.000000E+00
  1.250000E+03,   1.500000E+03,   1.375000E+03,   2.770621E+06,   0.000000E+00
  1.500000E+03,   1.750000E+03,   1.625000E+03,   3.065198E+06,   0.000000E+00
  1.750000E+03,   2.000000E+03,   1.875000E+03,   3.578826E+06,   0.000000E+00
  2.000000E+03,   2.250000E+03,   2.125000E+03,   3.792044E+06,   0.000000E+00
  2.250000E+03,   2.500000E+03,   2.375000E+03,   4.149056E+06,   0.000000E+00
  2.500000E+03,   2.750000E+03,   2.625000E+03,   4.661192E+06,   0.000000E+00
  2.750000E+03,   3.000000E+03,   2.875000E+03,   4.851316E+06,   0.000000E+00
  3.000000E+03,   3.250000E+03,   3.125000E+03,   5.291992E+06,   0.000000E+00
  3.250000E+03,   3.500000E+03,   3.375000E+03,   5.713006E+06,   0.000000E+00
  3.500000E+03,   3.750000E+03,   3.625000E+03,   6.201406E+06,   0.000000E+00
  3.750000E+03,   4.000000E+03,   3.875000E+03,   6.379854E+06,   0.000000E+00
  4.000000E+03,   4.250000E+03,   4.125000E+03,   6.931746E+06,   0.000000E+00
  4.250000E+03,   4.500000E+03,   4.375000E+03,   7.542181E+06,   0.000000E+00
  4.500000E+03,   4.750000E+03,   4.625000E+03,   7.808796E+06,   0.000000E+00
  4.750000E+03,   5.000000E+03,   4.875000E+03,   8.340797E+06,   0.000000E+00
  5.000000E+03,   5.500000E+03,   5.250000E+03,   1.851853E+07,   0.000000E+00
  5.500000E+03,   6.000000E+03,   5.750000E+03,   2.068870E+07,   0.000000E+00
  6.000000E+03,   6.500000E+03,   6.250000E+03,   2.326092E+07,   0.000000E+00
  6.500000E+03,   7.000000E+03,   6.750000E+03,   2.696278E+07,   0.000000E+00
  7.000000E+03,   1.000000E+04,   8.500000E+03,   2.215809E+08,   0.000000E+00
  1.000000E+04,   2.000000E+04,   1.500000E+04,   8.034229E+08,   0.000000E+00
  2.000000E+04,   3.000000E+04,   2.500000E+04,   6.353467E+08,   0.000000E+00
  3.000000E+04,   4.000000E+04,   3.500000E+04,   5.139661E+08,   0.000000E+00
  4.000000E+04,   5.000000E+04,   4.500000E+04,   4.052916E+08,   0.000000E+00
  5.000000E+04,   6.000000E+04,   5.500000E+04,   3.384194E+08,   0.000000E+00
  6.000000E+04,   7.000000E+04,   6.500000E+04,   2.361017E+08,   0.000000E+00
  7.000000E+04,   8.000000E+04,   7.500000E+04,   2.199929E+08,   0.000000E+00
  8.000000E+04,   1.000000E+05,   9.000000E+04,   3.230652E+08,   0.000000E+00
  1.000000E+05,   1.500000E+05,   1.250000E+05,   3.763348E+08,   0.000000E+00
  1.500000E+05,   2.000000E+05,   1.750000E+05,   1.784494E+08,   0.000000E+00
  2.000000E+05,   3.000000E+05,   2.500000E+05,   1.455325E+08,   0.000000E+00
  3.000000E+05,   4.000000E+05,   3.500000E+05,   1.928129E+07,   0.000000E+00
  4.000000E+05,   5.000000E+05,   4.500000E+05,   2.320878E+06,   0.000000E+00
  5.000000E+05,   8.000000E+05,   6.500000E+05,   8.985277E+05,   0.000000E+00
  8.000000E+05,   1.000000E+06,   0.000000E+00,   0.000000E+00,   0.000000E+00
'End of Block'
'*',    13,     3,     4,     0,     5,     5,    46,     1
'OMNIDIRECTIONAL FLUENCE ANALYSIS'
'MULASSIS ml-v01-19'
'geant4-09-02-ref-00 (19-December-2008)'
'FLU_BDY', 1, 2, ' '
'FLU_PAR, -1, e-      '
'FLU_AMN', 1, 0., 'deg'
'FLU_AMX', 1, 90., 'deg'
'Elo','keV', 1, ' Lower edge of energy    bin '
'Eup','keV', 1, ' Upper edge of energy    bin '
'Emean','keV', 1, ' Mean energy of bin '
'Value','particles/cm2/bin',1,             'Fluence/flux'
'Error','particles/cm2/bin',1,'Error in   fluence/flux'
  0.000000E+00,   4.000000E+01,   2.000000E+01,   9.529223E+10,   0.000000E+00
  4.000000E+01,   1.000000E+02,   7.000000E+01,   1.044743E+11,   0.000000E+00
  1.000000E+02,   2.000000E+02,   1.500000E+02,   1.491501E+11,   0.000000E+00
  2.000000E+02,   3.000000E+02,   2.500000E+02,   1.797196E+11,   0.000000E+00
  3.000000E+02,   4.000000E+02,   3.500000E+02,   2.157965E+11,   0.000000E+00
  4.000000E+02,   5.000000E+02,   4.500000E+02,   2.402223E+11,   0.000000E+00
  5.000000E+02,   6.000000E+02,   5.500000E+02,   2.469610E+11,   0.000000E+00
  6.000000E+02,   7.000000E+02,   6.500000E+02,   2.355018E+11,   0.000000E+00
  7.000000E+02,   8.000000E+02,   7.500000E+02,   2.177594E+11,   0.000000E+00
  8.000000E+02,   1.000000E+03,   9.000000E+02,   3.741755E+11,   0.000000E+00
  1.000000E+03,   1.250000E+03,   1.125000E+03,   3.639362E+11,   0.000000E+00
  1.250000E+03,   1.500000E+03,   1.375000E+03,   2.477983E+11,   0.000000E+00
  1.500000E+03,   1.750000E+03,   1.625000E+03,   1.524984E+11,   0.000000E+00
  1.750000E+03,   2.000000E+03,   1.875000E+03,   8.922563E+10,   0.000000E+00
  2.000000E+03,   2.250000E+03,   2.125000E+03,   5.283938E+10,   0.000000E+00
  2.250000E+03,   2.500000E+03,   2.375000E+03,   2.957213E+10,   0.000000E+00
  2.500000E+03,   2.750000E+03,   2.625000E+03,   1.613036E+10,   0.000000E+00
  2.750000E+03,   3.000000E+03,   2.875000E+03,   9.015472E+09,   0.000000E+00
  3.000000E+03,   3.250000E+03,   3.125000E+03,   4.948094E+09,   0.000000E+00
  3.250000E+03,   3.500000E+03,   3.375000E+03,   2.670451E+09,   0.000000E+00
  3.500000E+03,   3.750000E+03,   3.625000E+03,   1.397660E+09,   0.000000E+00
  3.750000E+03,   4.000000E+03,   3.875000E+03,   6.484271E+08,   0.000000E+00
  4.000000E+03,   4.250000E+03,   4.125000E+03,   2.049177E+08,   0.000000E+00
  4.250000E+03,   4.500000E+03,   4.375000E+03,   4.846464E+07,   0.000000E+00
  4.500000E+03,   4.750000E+03,   4.625000E+03,   1.037304E+07,   0.000000E+00
  4.750000E+03,   5.000000E+03,   4.875000E+03,   2.051731E+06,   0.000000E+00
  5.000000E+03,   5.500000E+03,   5.250000E+03,   6.919951E+05,   0.000000E+00
  5.500000E+03,   6.000000E+03,   5.750000E+03,   8.788392E+04,   0.000000E+00
  6.000000E+03,   6.500000E+03,   6.250000E+03,   2.095756E+04,   0.000000E+00
  6.500000E+03,   7.000000E+03,   6.750000E+03,   1.950896E+04,   0.000000E+00
  7.000000E+03,   1.000000E+04,   8.500000E+03,   1.170538E+05,   0.000000E+00
  1.000000E+04,   2.000000E+04,   1.500000E+04,   3.901792E+05,   0.000000E+00
  2.000000E+04,   3.000000E+04,   2.500000E+04,   2.356937E+05,   0.000000E+00
  3.000000E+04,   4.000000E+04,   3.500000E+04,   8.466988E+04,   0.000000E+00
  4.000000E+04,   5.000000E+04,   4.500000E+04,   4.091165E+04,   0.000000E+00
  5.000000E+04,   6.000000E+04,   5.500000E+04,   2.458905E+04,   0.000000E+00
  6.000000E+04,   7.000000E+04,   6.500000E+04,   1.615890E+04,   0.000000E+00
  7.000000E+04,   8.000000E+04,   7.500000E+04,   1.057826E+04,   0.000000E+00
  8.000000E+04,   1.000000E+05,   9.000000E+04,   1.315146E+04,   0.000000E+00
  1.000000E+05,   1.500000E+05,   1.250000E+05,   1.453543E+04,   0.000000E+00
  1.500000E+05,   2.000000E+05,   1.750000E+05,   4.603167E+03,   0.000000E+00
  2.000000E+05,   3.000000E+05,   2.500000E+05,   1.895565E+03,   0.000000E+00
  3.000000E+05,   4.000000E+05,   3.500000E+05,   1.181707E+02,   0.000000E+00
  4.000000E+05,   5.000000E+05,   4.500000E+05,   5.146079E+01,   0.000000E+00
  5.000000E+05,   8.000000E+05,   6.500000E+05,   6.728082E+00,   0.000000E+00
  8.000000E+05,   1.000000E+06,   0.000000E+00,   0.000000E+00,   0.000000E+00
'End of Block'
'*',    13,     3,     4,     0,     5,     5,    46,    -1
'OMNIDIRECTIONAL FLUENCE ANALYSIS'
'MULASSIS ml-v01-19'
'geant4-09-02-ref-00 (19-December-2008)'
'FLU_BDY', 1, 2, ' '
'FLU_PAR, -1, neutron '
'FLU_AMN', 1, 0., 'deg'
'FLU_AMX', 1, 90., 'deg'
'Elo','keV', 1, ' Lower edge of energy    bin '
'Eup','keV', 1, ' Upper edge of energy    bin '
'Emean','keV', 1, ' Mean energy of bin '
'Value','particles/cm2/bin',1,             'Fluence/flux'
'Error','particles/cm2/bin',1,'Error in   fluence/flux'
  0.000000E+00,   4.000000E+01,   2.000000E+01,   2.836366E+05,   0.000000E+00
  4.000000E+01,   1.000000E+02,   7.000000E+01,   4.254549E+05,   0.000000E+00
  1.000000E+02,   2.000000E+02,   1.500000E+02,   7.090915E+05,   0.000000E+00
  2.000000E+02,   3.000000E+02,   2.500000E+02,   7.090915E+05,   0.000000E+00
  3.000000E+02,   4.000000E+02,   3.500000E+02,   7.090915E+05,   0.000000E+00
  4.000000E+02,   5.000000E+02,   4.500000E+02,   7.090915E+05,   0.000000E+00
  5.000000E+02,   6.000000E+02,   5.500000E+02,   7.063299E+05,   0.000000E+00
  6.000000E+02,   7.000000E+02,   6.500000E+02,   6.904196E+05,   0.000000E+00
  7.000000E+02,   8.000000E+02,   7.500000E+02,   6.904196E+05,   0.000000E+00
  8.000000E+02,   1.000000E+03,   9.000000E+02,   1.349599E+06,   0.000000E+00
  1.000000E+03,   1.250000E+03,   1.125000E+03,   1.633890E+06,   0.000000E+00
  1.250000E+03,   1.500000E+03,   1.375000E+03,   1.560748E+06,   0.000000E+00
  1.500000E+03,   1.750000E+03,   1.625000E+03,   1.501910E+06,   0.000000E+00
  1.750000E+03,   2.000000E+03,   1.875000E+03,   1.409259E+06,   0.000000E+00
  2.000000E+03,   2.250000E+03,   2.125000E+03,   1.347867E+06,   0.000000E+00
  2.250000E+03,   2.500000E+03,   2.375000E+03,   1.281392E+06,   0.000000E+00
  2.500000E+03,   2.750000E+03,   2.625000E+03,   1.194339E+06,   0.000000E+00
  2.750000E+03,   3.000000E+03,   2.875000E+03,   1.151421E+06,   0.000000E+00
  3.000000E+03,   3.250000E+03,   3.125000E+03,   1.072214E+06,   0.000000E+00
  3.250000E+03,   3.500000E+03,   3.375000E+03,   1.016492E+06,   0.000000E+00
  3.500000E+03,   3.750000E+03,   3.625000E+03,   9.672960E+05,   0.000000E+00
  3.750000E+03,   4.000000E+03,   3.875000E+03,   9.169083E+05,   0.000000E+00
  4.000000E+03,   4.250000E+03,   4.125000E+03,   8.735356E+05,   0.000000E+00
  4.250000E+03,   4.500000E+03,   4.375000E+03,   8.158331E+05,   0.000000E+00
  4.500000E+03,   4.750000E+03,   4.625000E+03,   7.896920E+05,   0.000000E+00
  4.750000E+03,   5.000000E+03,   4.875000E+03,   7.382986E+05,   0.000000E+00
  5.000000E+03,   5.500000E+03,   5.250000E+03,   1.380509E+06,   0.000000E+00
  5.500000E+03,   6.000000E+03,   5.750000E+03,   1.262631E+06,   0.000000E+00
  6.000000E+03,   6.500000E+03,   6.250000E+03,   1.138662E+06,   0.000000E+00
  6.500000E+03,   7.000000E+03,   6.750000E+03,   1.038714E+06,   0.000000E+00
  7.000000E+03,   1.000000E+04,   8.500000E+03,   4.756304E+06,   0.000000E+00
  1.000000E+04,   2.000000E+04,   1.500000E+04,   7.740467E+06,   0.000000E+00
  2.000000E+04,   3.000000E+04,   2.500000E+04,   3.691072E+06,   0.000000E+00
  3.000000E+04,   4.000000E+04,   3.500000E+04,   2.223377E+06,   0.000000E+00
  4.000000E+04,   5.000000E+04,   4.500000E+04,   1.458303E+06,   0.000000E+00
  5.000000E+04,   6.000000E+04,   5.500000E+04,   1.012172E+06,   0.000000E+00
  6.000000E+04,   7.000000E+04,   6.500000E+04,   7.143446E+05,   0.000000E+00
  7.000000E+04,   8.000000E+04,   7.500000E+04,   5.231949E+05,   0.000000E+00
  8.000000E+04,   1.000000E+05,   9.000000E+04,   7.086230E+05,   0.000000E+00
  1.000000E+05,   1.500000E+05,   1.250000E+05,   8.916765E+05,   0.000000E+00
  1.500000E+05,   2.000000E+05,   1.750000E+05,   3.702619E+05,   0.000000E+00
  2.000000E+05,   3.000000E+05,   2.500000E+05,   1.906583E+05,   0.000000E+00
  3.000000E+05,   4.000000E+05,   3.500000E+05,   5.870532E+03,   0.000000E+00
  4.000000E+05,   5.000000E+05,   4.500000E+05,   2.459450E+03,   0.000000E+00
  5.000000E+05,   8.000000E+05,   6.500000E+05,   2.030721E+02,   0.000000E+00
  8.000000E+05,   1.000000E+06,   0.000000E+00,   0.000000E+00,   0.000000E+00
'End of File'
