Energy
(MeV)	Elec. Stopping Power
(MeV cm2 g-1)	Ionizing Dose*
(MeV g-1)	Ionizing Dose*
(Gy)
1.0000e-05	4.4610e+00	4.4610e+00	7.1490e-10
1.5000e-05	5.4640e+00	5.4640e+00	8.7564e-10
2.0000e-05	6.3090e+00	6.3090e+00	1.0111e-09
2.5000e-05	7.0540e+00	7.0540e+00	1.1304e-09
3.0000e-05	7.7270e+00	7.7270e+00	1.2383e-09
3.5000e-05	8.3460e+00	8.3460e+00	1.3375e-09
4.0000e-05	8.9230e+00	8.9230e+00	1.4300e-09
4.5000e-05	9.4640e+00	9.4640e+00	1.5167e-09
5.0000e-05	9.9760e+00	9.9760e+00	1.5987e-09
5.5000e-05	1.0460e+01	1.0460e+01	1.6763e-09
6.0000e-05	1.0930e+01	1.0930e+01	1.7516e-09
6.5000e-05	1.1370e+01	1.1370e+01	1.8221e-09
7.0000e-05	1.1800e+01	1.1800e+01	1.8910e-09
7.5000e-05	1.2220e+01	1.2220e+01	1.9583e-09
8.0000e-05	1.2620e+01	1.2620e+01	2.0224e-09
8.5000e-05	1.3010e+01	1.3010e+01	2.0849e-09
9.0000e-05	1.3380e+01	1.3380e+01	2.1442e-09
9.5000e-05	1.3750e+01	1.3750e+01	2.2035e-09
1.0000e-04	1.4110e+01	1.4110e+01	2.2612e-09
1.5000e-04	1.7280e+01	1.7280e+01	2.7692e-09
2.0000e-04	1.9950e+01	1.9950e+01	3.1971e-09
2.5000e-04	2.2310e+01	2.2310e+01	3.5753e-09
3.0000e-04	2.4440e+01	2.4440e+01	3.9167e-09
3.5000e-04	2.6390e+01	2.6390e+01	4.2292e-09
4.0000e-04	2.8220e+01	2.8220e+01	4.5224e-09
4.5000e-04	2.9930e+01	2.9930e+01	4.7965e-09
5.0000e-04	3.1550e+01	3.1550e+01	5.0561e-09
5.5000e-04	3.3090e+01	3.3090e+01	5.3029e-09
6.0000e-04	3.4560e+01	3.4560e+01	5.5385e-09
6.5000e-04	3.5970e+01	3.5970e+01	5.7644e-09
7.0000e-04	3.7330e+01	3.7330e+01	5.9824e-09
7.5000e-04	3.8640e+01	3.8640e+01	6.1923e-09
8.0000e-04	3.9900e+01	3.9900e+01	6.3942e-09
8.5000e-04	4.1130e+01	4.1130e+01	6.5913e-09
9.0000e-04	4.2320e+01	4.2320e+01	6.7821e-09
9.5000e-04	4.3480e+01	4.3480e+01	6.9679e-09
1.0000e-03	4.4610e+01	4.4610e+01	7.1490e-09
1.5000e-03	5.4640e+01	5.4640e+01	8.7564e-09
2.0000e-03	6.3090e+01	6.3090e+01	1.0111e-08
2.5000e-03	7.0540e+01	7.0540e+01	1.1304e-08
3.0000e-03	7.7270e+01	7.7270e+01	1.2383e-08
3.5000e-03	8.3460e+01	8.3460e+01	1.3375e-08
4.0000e-03	8.9230e+01	8.9230e+01	1.4300e-08
4.5000e-03	9.4640e+01	9.4640e+01	1.5167e-08
5.0000e-03	9.9760e+01	9.9760e+01	1.5987e-08
5.5000e-03	1.0460e+02	1.0460e+02	1.6763e-08
6.0000e-03	1.0930e+02	1.0930e+02	1.7516e-08
6.5000e-03	1.1370e+02	1.1370e+02	1.8221e-08
7.0000e-03	1.1800e+02	1.1800e+02	1.8910e-08
7.5000e-03	1.2220e+02	1.2220e+02	1.9583e-08
8.0000e-03	1.2620e+02	1.2620e+02	2.0224e-08
8.5000e-03	1.3010e+02	1.3010e+02	2.0849e-08
9.0000e-03	1.3380e+02	1.3380e+02	2.1442e-08
9.5000e-03	1.3750e+02	1.3750e+02	2.2035e-08
1.0000e-02	1.4110e+02	1.4110e+02	2.2612e-08
1.5000e-02	1.7280e+02	1.7280e+02	2.7692e-08
2.0000e-02	1.9950e+02	1.9950e+02	3.1971e-08
2.5000e-02	2.2920e+02	2.2920e+02	3.6731e-08
3.0000e-02	2.6670e+02	2.6670e+02	4.2740e-08
3.5000e-02	2.9040e+02	2.9040e+02	4.6538e-08
4.0000e-02	3.0850e+02	3.0850e+02	4.9439e-08
4.5000e-02	3.2450e+02	3.2450e+02	5.2003e-08
5.0000e-02	3.3980e+02	3.3980e+02	5.4455e-08
5.5000e-02	3.5480e+02	3.5480e+02	5.6859e-08
6.0000e-02	3.6980e+02	3.6980e+02	5.9263e-08
6.5000e-02	3.8470e+02	3.8470e+02	6.1651e-08
7.0000e-02	3.9950e+02	3.9950e+02	6.4022e-08
7.5000e-02	4.1430e+02	4.1430e+02	6.6394e-08
8.0000e-02	4.2900e+02	4.2900e+02	6.8750e-08
8.5000e-02	4.4350e+02	4.4350e+02	7.1074e-08
9.0000e-02	4.5790e+02	4.5790e+02	7.3381e-08
9.5000e-02	4.7200e+02	4.7200e+02	7.5641e-08
1.0000e-01	4.8600e+02	4.8600e+02	7.7885e-08
1.5000e-01	6.1480e+02	6.1480e+02	9.8526e-08
2.0000e-01	7.2570e+02	7.2570e+02	1.1630e-07
2.5000e-01	8.2280e+02	8.2280e+02	1.3186e-07
3.0000e-01	9.0910e+02	9.0910e+02	1.4569e-07
3.5000e-01	9.8650e+02	9.8650e+02	1.5809e-07
4.0000e-01	1.0570e+03	1.0570e+03	1.6939e-07
4.5000e-01	1.1210e+03	1.1210e+03	1.7965e-07
5.0000e-01	1.1810e+03	1.1810e+03	1.8926e-07
5.5000e-01	1.2370e+03	1.2370e+03	1.9824e-07
6.0000e-01	1.2890e+03	1.2890e+03	2.0657e-07
6.5000e-01	1.3400e+03	1.3400e+03	2.1474e-07
7.0000e-01	1.3880e+03	1.3880e+03	2.2244e-07
7.5000e-01	1.4340e+03	1.4340e+03	2.2981e-07
8.0000e-01	1.4790e+03	1.4790e+03	2.3702e-07
8.5000e-01	1.5230e+03	1.5230e+03	2.4407e-07
9.0000e-01	1.5650e+03	1.5650e+03	2.5080e-07
9.5000e-01	1.6050e+03	1.6050e+03	2.5721e-07
1.0000e+00	1.6450e+03	1.6450e+03	2.6362e-07
1.5000e+00	1.9780e+03	1.9780e+03	3.1699e-07
2.0000e+00	2.2150e+03	2.2150e+03	3.5497e-07
2.5000e+00	2.3780e+03	2.3780e+03	3.8109e-07
3.0000e+00	2.4900e+03	2.4900e+03	3.9904e-07
3.5000e+00	2.5650e+03	2.5650e+03	4.1106e-07
4.0000e+00	2.6150e+03	2.6150e+03	4.1907e-07
4.5000e+00	2.6470e+03	2.6470e+03	4.2420e-07
5.0000e+00	2.6660e+03	2.6660e+03	4.2724e-07
5.5000e+00	2.6750e+03	2.6750e+03	4.2869e-07
6.0000e+00	2.6780e+03	2.6780e+03	4.2917e-07
6.5000e+00	2.6760e+03	2.6760e+03	4.2885e-07
7.0000e+00	2.6700e+03	2.6700e+03	4.2788e-07
7.5000e+00	2.6610e+03	2.6610e+03	4.2644e-07
8.0000e+00	2.6500e+03	2.6500e+03	4.2468e-07
8.5000e+00	2.6370e+03	2.6370e+03	4.2260e-07
9.0000e+00	2.6230e+03	2.6230e+03	4.2035e-07
9.5000e+00	2.6080e+03	2.6080e+03	4.1795e-07
1.0000e+01	2.5930e+03	2.5930e+03	4.1554e-07
1.5000e+01	2.4210e+03	2.4210e+03	3.8798e-07
2.0000e+01	2.2500e+03	2.2500e+03	3.6058e-07
2.5000e+01	2.0960e+03	2.0960e+03	3.3590e-07
3.0000e+01	1.9490e+03	1.9490e+03	3.1234e-07
3.5000e+01	1.8180e+03	1.8180e+03	2.9135e-07
4.0000e+01	1.6990e+03	1.6990e+03	2.7228e-07
4.5000e+01	1.5920e+03	1.5920e+03	2.5513e-07
5.0000e+01	1.4970e+03	1.4970e+03	2.3990e-07
5.5000e+01	1.4100e+03	1.4100e+03	2.2596e-07
6.0000e+01	1.3330e+03	1.3330e+03	2.1362e-07
6.5000e+01	1.2630e+03	1.2630e+03	2.0240e-07
7.0000e+01	1.2000e+03	1.2000e+03	1.9231e-07
7.5000e+01	1.1430e+03	1.1430e+03	1.8317e-07
8.0000e+01	1.0920e+03	1.0920e+03	1.7500e-07
8.5000e+01	1.0450e+03	1.0450e+03	1.6747e-07
9.0000e+01	1.0030e+03	1.0030e+03	1.6074e-07
9.5000e+01	9.6370e+02	9.6370e+02	1.5444e-07
1.0000e+02	9.2820e+02	9.2820e+02	1.4875e-07
1.5000e+02	6.9380e+02	6.9380e+02	1.1119e-07
2.0000e+02	5.7110e+02	5.7110e+02	9.1522e-08
2.5000e+02	4.9250e+02	4.9250e+02	7.8926e-08
3.0000e+02	4.3410e+02	4.3410e+02	6.9567e-08
3.5000e+02	3.8670e+02	3.8670e+02	6.1971e-08
4.0000e+02	3.4920e+02	3.4920e+02	5.5962e-08
4.5000e+02	3.1950e+02	3.1950e+02	5.1202e-08
5.0000e+02	2.9528e+02	2.9528e+02	4.7320e-08
5.5000e+02	2.7544e+02	2.7544e+02	4.4141e-08
6.0000e+02	2.5848e+02	2.5848e+02	4.1423e-08
6.5000e+02	2.4382e+02	2.4382e+02	3.9074e-08
7.0000e+02	2.3101e+02	2.3101e+02	3.7021e-08
7.5000e+02	2.1975e+02	2.1975e+02	3.5216e-08
8.0000e+02	2.0975e+02	2.0975e+02	3.3613e-08
8.5000e+02	2.0086e+02	2.0086e+02	3.2189e-08
9.0000e+02	1.9281e+02	1.9281e+02	3.0899e-08
9.5000e+02	1.8553e+02	1.8553e+02	2.9732e-08
1.0000e+03	1.7892e+02	1.7892e+02	2.8673e-08
1.5000e+03	1.3527e+02	1.3527e+02	2.1678e-08
2.0000e+03	1.1159e+02	1.1159e+02	1.7883e-08
2.5000e+03	9.6967e+01	9.6967e+01	1.5540e-08
3.0000e+03	8.7048e+01	8.7048e+01	1.3950e-08
3.5000e+03	7.9896e+01	7.9896e+01	1.2804e-08
4.0000e+03	7.4510e+01	7.4510e+01	1.1941e-08
4.5000e+03	7.0322e+01	7.0322e+01	1.1270e-08
5.0000e+03	6.6984e+01	6.6984e+01	1.0735e-08
5.5000e+03	6.4270e+01	6.4270e+01	1.0300e-08
6.0000e+03	6.2029e+01	6.2029e+01	9.9405e-09
6.5000e+03	6.0153e+01	6.0153e+01	9.6399e-09
7.0000e+03	5.8566e+01	5.8566e+01	9.3856e-09
7.5000e+03	5.7211e+01	5.7211e+01	9.1684e-09
8.0000e+03	5.6045e+01	5.6045e+01	8.9815e-09
8.5000e+03	5.5034e+01	5.5034e+01	8.8195e-09
9.0000e+03	5.4155e+01	5.4155e+01	8.6787e-09
9.5000e+03	5.3385e+01	5.3385e+01	8.5552e-09
1.0000e+04	5.2706e+01	5.2706e+01	8.4465e-09
1.5000e+04	4.8957e+01	4.8957e+01	7.8457e-09
2.0000e+04	4.7714e+01	4.7714e+01	7.6465e-09
2.5000e+04	4.7373e+01	4.7373e+01	7.5919e-09
3.0000e+04	4.7423e+01	4.7423e+01	7.5999e-09
3.5000e+04	4.7658e+01	4.7658e+01	7.6374e-09
4.0000e+04	4.7981e+01	4.7981e+01	7.6893e-09
4.5000e+04	4.8346e+01	4.8346e+01	7.7478e-09
5.0000e+04	4.8728e+01	4.8728e+01	7.8089e-09
5.5000e+04	4.9112e+01	4.9112e+01	7.8705e-09
6.0000e+04	4.9492e+01	4.9492e+01	7.9314e-09
6.5000e+04	4.9862e+01	4.9862e+01	7.9907e-09
7.0000e+04	5.0221e+01	5.0221e+01	8.0483e-09
7.5000e+04	5.0568e+01	5.0568e+01	8.1039e-09
8.0000e+04	5.0903e+01	5.0903e+01	8.1575e-09
8.5000e+04	5.1224e+01	5.1224e+01	8.2090e-09
9.0000e+04	5.1534e+01	5.1534e+01	8.2587e-09
9.5000e+04	5.1832e+01	5.1832e+01	8.3064e-09
1.0000e+05	5.2119e+01	5.2119e+01	8.3523e-09
1.5000e+05	5.4484e+01	5.4484e+01	8.7315e-09
2.0000e+05	5.6221e+01	5.6221e+01	9.0098e-09
2.5000e+05	5.7577e+01	5.7577e+01	9.2270e-09
3.0000e+05	5.8681e+01	5.8681e+01	9.4040e-09
3.5000e+05	5.9609e+01	5.9609e+01	9.5528e-09
4.0000e+05	6.0408e+01	6.0408e+01	9.6808e-09
4.5000e+05	6.1107e+01	6.1107e+01	9.7928e-09
5.0000e+05	6.1728e+01	6.1728e+01	9.8924e-09
5.5000e+05	6.2286e+01	6.2286e+01	9.9818e-09
6.0000e+05	6.2793e+01	6.2793e+01	1.0063e-08
6.5000e+05	6.3255e+01	6.3255e+01	1.0137e-08
7.0000e+05	6.3681e+01	6.3681e+01	1.0205e-08
7.5000e+05	6.4075e+01	6.4075e+01	1.0268e-08
8.0000e+05	6.4442e+01	6.4442e+01	1.0327e-08
8.5000e+05	6.4785e+01	6.4785e+01	1.0382e-08
9.0000e+05	6.5107e+01	6.5107e+01	1.0434e-08
9.5000e+05	6.5409e+01	6.5409e+01	1.0482e-08
1.0000e+06	6.5696e+01	6.5696e+01	1.0528e-08
1.5000e+06	6.7915e+01	6.7915e+01	1.0884e-08
2.0000e+06	6.9444e+01	6.9444e+01	1.1129e-08
2.5000e+06	7.0606e+01	7.0606e+01	1.1315e-08
3.0000e+06	7.1540e+01	7.1540e+01	1.1465e-08
3.5000e+06	7.2319e+01	7.2319e+01	1.1590e-08
4.0000e+06	7.2987e+01	7.2987e+01	1.1697e-08
4.5000e+06	7.3570e+01	7.3570e+01	1.1790e-08
5.0000e+06	7.4088e+01	7.4088e+01	1.1873e-08
5.5000e+06	7.4552e+01	7.4552e+01	1.1948e-08
6.0000e+06	7.4974e+01	7.4974e+01	1.2015e-08
6.5000e+06	7.5359e+01	7.5359e+01	1.2077e-08
7.0000e+06	7.5714e+01	7.5714e+01	1.2134e-08
7.5000e+06	7.6043e+01	7.6043e+01	1.2186e-08
8.0000e+06	7.6349e+01	7.6349e+01	1.2235e-08
8.5000e+06	7.6635e+01	7.6635e+01	1.2281e-08
9.0000e+06	7.6904e+01	7.6904e+01	1.2324e-08
9.5000e+06	7.7157e+01	7.7157e+01	1.2365e-08
1.0000e+07	7.7396e+01	7.7396e+01	1.2403e-08