Energy
(MeV)	Elec. Stopping Power
(MeV cm2 g-1)	Ionizing Dose*
(MeV g-1)	Ionizing Dose*
(Gy)
1.0000e-05	3.7900e+00	3.7900e+00	6.0737e-10
1.5000e-05	4.6420e+00	4.6420e+00	7.4391e-10
2.0000e-05	5.3600e+00	5.3600e+00	8.5897e-10
2.5000e-05	5.9930e+00	5.9930e+00	9.6042e-10
3.0000e-05	6.5650e+00	6.5650e+00	1.0521e-09
3.5000e-05	7.0910e+00	7.0910e+00	1.1364e-09
4.0000e-05	7.5800e+00	7.5800e+00	1.2147e-09
4.5000e-05	8.0400e+00	8.0400e+00	1.2885e-09
5.0000e-05	8.4750e+00	8.4750e+00	1.3582e-09
5.5000e-05	8.8890e+00	8.8890e+00	1.4245e-09
6.0000e-05	9.2840e+00	9.2840e+00	1.4878e-09
6.5000e-05	9.6630e+00	9.6630e+00	1.5486e-09
7.0000e-05	1.0030e+01	1.0030e+01	1.6074e-09
7.5000e-05	1.0380e+01	1.0380e+01	1.6635e-09
8.0000e-05	1.0720e+01	1.0720e+01	1.7179e-09
8.5000e-05	1.1050e+01	1.1050e+01	1.7708e-09
9.0000e-05	1.1370e+01	1.1370e+01	1.8221e-09
9.5000e-05	1.1680e+01	1.1680e+01	1.8718e-09
1.0000e-04	1.1990e+01	1.1990e+01	1.9215e-09
1.5000e-04	1.4680e+01	1.4680e+01	2.3526e-09
2.0000e-04	1.6950e+01	1.6950e+01	2.7163e-09
2.5000e-04	1.8950e+01	1.8950e+01	3.0369e-09
3.0000e-04	2.0760e+01	2.0760e+01	3.3269e-09
3.5000e-04	2.2420e+01	2.2420e+01	3.5929e-09
4.0000e-04	2.3970e+01	2.3970e+01	3.8413e-09
4.5000e-04	2.5430e+01	2.5430e+01	4.0753e-09
5.0000e-04	2.6800e+01	2.6800e+01	4.2949e-09
5.5000e-04	2.8110e+01	2.8110e+01	4.5048e-09
6.0000e-04	2.9360e+01	2.9360e+01	4.7051e-09
6.5000e-04	3.0560e+01	3.0560e+01	4.8974e-09
7.0000e-04	3.1710e+01	3.1710e+01	5.0817e-09
7.5000e-04	3.2820e+01	3.2820e+01	5.2596e-09
8.0000e-04	3.3900e+01	3.3900e+01	5.4327e-09
8.5000e-04	3.4940e+01	3.4940e+01	5.5994e-09
9.0000e-04	3.5960e+01	3.5960e+01	5.7628e-09
9.5000e-04	3.6940e+01	3.6940e+01	5.9199e-09
1.0000e-03	3.7900e+01	3.7900e+01	6.0737e-09
1.5000e-03	4.6420e+01	4.6420e+01	7.4391e-09
2.0000e-03	5.3600e+01	5.3600e+01	8.5897e-09
2.5000e-03	5.9930e+01	5.9930e+01	9.6042e-09
3.0000e-03	6.5650e+01	6.5650e+01	1.0521e-08
3.5000e-03	7.0910e+01	7.0910e+01	1.1364e-08
4.0000e-03	7.5800e+01	7.5800e+01	1.2147e-08
4.5000e-03	8.0400e+01	8.0400e+01	1.2885e-08
5.0000e-03	8.4750e+01	8.4750e+01	1.3582e-08
5.5000e-03	8.8890e+01	8.8890e+01	1.4245e-08
6.0000e-03	9.2840e+01	9.2840e+01	1.4878e-08
6.5000e-03	9.6630e+01	9.6630e+01	1.5486e-08
7.0000e-03	1.0030e+02	1.0030e+02	1.6074e-08
7.5000e-03	1.0380e+02	1.0380e+02	1.6635e-08
8.0000e-03	1.0720e+02	1.0720e+02	1.7179e-08
8.5000e-03	1.1050e+02	1.1050e+02	1.7708e-08
9.0000e-03	1.1370e+02	1.1370e+02	1.8221e-08
9.5000e-03	1.1680e+02	1.1680e+02	1.8718e-08
1.0000e-02	1.1990e+02	1.1990e+02	1.9215e-08
1.5000e-02	1.4680e+02	1.4680e+02	2.3526e-08
2.0000e-02	1.6950e+02	1.6950e+02	2.7163e-08
2.5000e-02	1.8950e+02	1.8950e+02	3.0369e-08
3.0000e-02	2.0760e+02	2.0760e+02	3.3269e-08
3.5000e-02	2.2420e+02	2.2420e+02	3.5929e-08
4.0000e-02	2.3970e+02	2.3970e+02	3.8413e-08
4.5000e-02	2.5430e+02	2.5430e+02	4.0753e-08
5.0000e-02	2.7630e+02	2.7630e+02	4.4279e-08
5.5000e-02	3.0530e+02	3.0530e+02	4.8926e-08
6.0000e-02	3.2870e+02	3.2870e+02	5.2676e-08
6.5000e-02	3.4820e+02	3.4820e+02	5.5801e-08
7.0000e-02	3.6500e+02	3.6500e+02	5.8494e-08
7.5000e-02	3.7980e+02	3.7980e+02	6.0865e-08
8.0000e-02	3.9310e+02	3.9310e+02	6.2997e-08
8.5000e-02	4.0550e+02	4.0550e+02	6.4984e-08
9.0000e-02	4.1710e+02	4.1710e+02	6.6843e-08
9.5000e-02	4.2830e+02	4.2830e+02	6.8638e-08
1.0000e-01	4.3920e+02	4.3920e+02	7.0385e-08
1.5000e-01	5.4790e+02	5.4790e+02	8.7804e-08
2.0000e-01	6.7030e+02	6.7030e+02	1.0742e-07
2.5000e-01	8.0480e+02	8.0480e+02	1.2897e-07
3.0000e-01	9.4670e+02	9.4670e+02	1.5171e-07
3.5000e-01	1.0920e+03	1.0920e+03	1.7500e-07
4.0000e-01	1.2390e+03	1.2390e+03	1.9856e-07
4.5000e-01	1.3850e+03	1.3850e+03	2.2196e-07
5.0000e-01	1.5300e+03	1.5300e+03	2.4519e-07
5.5000e-01	1.6730e+03	1.6730e+03	2.6811e-07
6.0000e-01	1.8130e+03	1.8130e+03	2.9054e-07
6.5000e-01	1.9510e+03	1.9510e+03	3.1266e-07
7.0000e-01	2.0850e+03	2.0850e+03	3.3413e-07
7.5000e-01	2.2170e+03	2.2170e+03	3.5529e-07
8.0000e-01	2.3450e+03	2.3450e+03	3.7580e-07
8.5000e-01	2.4690e+03	2.4690e+03	3.9567e-07
9.0000e-01	2.5910e+03	2.5910e+03	4.1522e-07
9.5000e-01	2.7090e+03	2.7090e+03	4.3413e-07
1.0000e+00	2.8240e+03	2.8240e+03	4.5256e-07
1.5000e+00	3.8140e+03	3.8140e+03	6.1122e-07
2.0000e+00	4.5720e+03	4.5720e+03	7.3269e-07
2.5000e+00	5.1730e+03	5.1730e+03	8.2901e-07
3.0000e+00	5.6670e+03	5.6670e+03	9.0817e-07
3.5000e+00	6.0850e+03	6.0850e+03	9.7516e-07
4.0000e+00	6.4460e+03	6.4460e+03	1.0330e-06
4.5000e+00	6.7620e+03	6.7620e+03	1.0837e-06
5.0000e+00	7.0410e+03	7.0410e+03	1.1284e-06
5.5000e+00	7.2890e+03	7.2890e+03	1.1681e-06
6.0000e+00	7.5110e+03	7.5110e+03	1.2037e-06
6.5000e+00	7.7100e+03	7.7100e+03	1.2356e-06
7.0000e+00	7.8890e+03	7.8890e+03	1.2643e-06
7.5000e+00	8.0500e+03	8.0500e+03	1.2901e-06
8.0000e+00	8.1950e+03	8.1950e+03	1.3133e-06
8.5000e+00	8.3250e+03	8.3250e+03	1.3341e-06
9.0000e+00	8.4430e+03	8.4430e+03	1.3530e-06
9.5000e+00	8.5490e+03	8.5490e+03	1.3700e-06
1.0000e+01	8.6450e+03	8.6450e+03	1.3854e-06
1.5000e+01	9.1910e+03	9.1910e+03	1.4729e-06
2.0000e+01	9.3030e+03	9.3030e+03	1.4909e-06
2.5000e+01	9.2150e+03	9.2150e+03	1.4768e-06
3.0000e+01	9.0290e+03	9.0290e+03	1.4470e-06
3.5000e+01	8.7970e+03	8.7970e+03	1.4098e-06
4.0000e+01	8.5460e+03	8.5460e+03	1.3696e-06
4.5000e+01	8.2890e+03	8.2890e+03	1.3284e-06
5.0000e+01	8.0660e+03	8.0660e+03	1.2926e-06
5.5000e+01	7.8420e+03	7.8420e+03	1.2567e-06
6.0000e+01	7.6000e+03	7.6000e+03	1.2179e-06
6.5000e+01	7.3940e+03	7.3940e+03	1.1849e-06
7.0000e+01	7.1960e+03	7.1960e+03	1.1532e-06
7.5000e+01	7.0080e+03	7.0080e+03	1.1231e-06
8.0000e+01	6.8280e+03	6.8280e+03	1.0942e-06
8.5000e+01	6.6560e+03	6.6560e+03	1.0667e-06
9.0000e+01	6.4930e+03	6.4930e+03	1.0405e-06
9.5000e+01	6.3370e+03	6.3370e+03	1.0155e-06
1.0000e+02	6.1890e+03	6.1890e+03	9.9183e-07
1.5000e+02	5.0250e+03	5.0250e+03	8.0529e-07
2.0000e+02	4.2540e+03	4.2540e+03	6.8173e-07
2.5000e+02	3.7080e+03	3.7080e+03	5.9423e-07
3.0000e+02	3.3010e+03	3.3010e+03	5.2901e-07
3.5000e+02	2.9840e+03	2.9840e+03	4.7821e-07
4.0000e+02	2.7300e+03	2.7300e+03	4.3750e-07
4.5000e+02	2.5200e+03	2.5200e+03	4.0385e-07
5.0000e+02	2.3440e+03	2.3440e+03	3.7564e-07
5.5000e+02	2.1940e+03	2.1940e+03	3.5160e-07
6.0000e+02	2.0630e+03	2.0630e+03	3.3061e-07
6.5000e+02	1.9490e+03	1.9490e+03	3.1234e-07
7.0000e+02	1.8480e+03	1.8480e+03	2.9615e-07
7.5000e+02	1.7560e+03	1.7560e+03	2.8141e-07
8.0000e+02	1.6720e+03	1.6720e+03	2.6795e-07
8.5000e+02	1.5960e+03	1.5960e+03	2.5577e-07
9.0000e+02	1.5280e+03	1.5280e+03	2.4487e-07
9.5000e+02	1.4660e+03	1.4660e+03	2.3494e-07
1.0000e+03	1.4100e+03	1.4100e+03	2.2597e-07
1.5000e+03	1.0422e+03	1.0422e+03	1.6702e-07
2.0000e+03	8.4404e+02	8.4404e+02	1.3526e-07
2.5000e+03	7.1975e+02	7.1975e+02	1.1534e-07
3.0000e+03	6.3391e+02	6.3391e+02	1.0159e-07
3.5000e+03	5.7012e+02	5.7012e+02	9.1366e-08
4.0000e+03	5.2149e+02	5.2149e+02	8.3572e-08
4.5000e+03	4.8317e+02	4.8317e+02	7.7432e-08
5.0000e+03	4.5222e+02	4.5222e+02	7.2471e-08
5.5000e+03	4.2669e+02	4.2669e+02	6.8380e-08
6.0000e+03	4.0530e+02	4.0530e+02	6.4951e-08
6.5000e+03	3.8711e+02	3.8711e+02	6.2038e-08
7.0000e+03	3.7148e+02	3.7148e+02	5.9533e-08
7.5000e+03	3.5791e+02	3.5791e+02	5.7358e-08
8.0000e+03	3.4603e+02	3.4603e+02	5.5453e-08
8.5000e+03	3.3554e+02	3.3554e+02	5.3773e-08
9.0000e+03	3.2623e+02	3.2623e+02	5.2281e-08
9.5000e+03	3.1793e+02	3.1793e+02	5.0950e-08
1.0000e+04	3.1042e+02	3.1042e+02	4.9748e-08
1.5000e+04	2.6385e+02	2.6385e+02	4.2283e-08
2.0000e+04	2.4221e+02	2.4221e+02	3.8816e-08
2.5000e+04	2.3056e+02	2.3056e+02	3.6949e-08
3.0000e+04	2.2380e+02	2.2380e+02	3.5865e-08
3.5000e+04	2.1974e+02	2.1974e+02	3.5215e-08
4.0000e+04	2.1730e+02	2.1730e+02	3.4824e-08
4.5000e+04	2.1590e+02	2.1590e+02	3.4599e-08
5.0000e+04	2.1516e+02	2.1516e+02	3.4482e-08
5.5000e+04	2.1489e+02	2.1489e+02	3.4438e-08
6.0000e+04	2.1493e+02	2.1493e+02	3.4444e-08
6.5000e+04	2.1520e+02	2.1520e+02	3.4487e-08
7.0000e+04	2.1562e+02	2.1562e+02	3.4555e-08
7.5000e+04	2.1616e+02	2.1616e+02	3.4641e-08
8.0000e+04	2.1677e+02	2.1677e+02	3.4739e-08
8.5000e+04	2.1744e+02	2.1744e+02	3.4847e-08
9.0000e+04	2.1815e+02	2.1815e+02	3.4961e-08
9.5000e+04	2.1889e+02	2.1889e+02	3.5079e-08
1.0000e+05	2.1964e+02	2.1964e+02	3.5199e-08
1.5000e+05	2.2708e+02	2.2708e+02	3.6392e-08
2.0000e+05	2.3349e+02	2.3349e+02	3.7419e-08
2.5000e+05	2.3885e+02	2.3885e+02	3.8277e-08
3.0000e+05	2.4338e+02	2.4338e+02	3.9004e-08
3.5000e+05	2.4728e+02	2.4728e+02	3.9628e-08
4.0000e+05	2.5069e+02	2.5069e+02	4.0174e-08
4.5000e+05	2.5371e+02	2.5371e+02	4.0658e-08
5.0000e+05	2.5641e+02	2.5641e+02	4.1091e-08
5.5000e+05	2.5885e+02	2.5885e+02	4.1482e-08
6.0000e+05	2.6108e+02	2.6108e+02	4.1839e-08
6.5000e+05	2.6312e+02	2.6312e+02	4.2167e-08
7.0000e+05	2.6501e+02	2.6501e+02	4.2469e-08
7.5000e+05	2.6676e+02	2.6676e+02	4.2750e-08
8.0000e+05	2.6839e+02	2.6839e+02	4.3012e-08
8.5000e+05	2.6992e+02	2.6992e+02	4.3257e-08
9.0000e+05	2.7136e+02	2.7136e+02	4.3487e-08
9.5000e+05	2.7272e+02	2.7272e+02	4.3705e-08
1.0000e+06	2.7400e+02	2.7400e+02	4.3910e-08
1.5000e+06	2.8398e+02	2.8398e+02	4.5510e-08
2.0000e+06	2.9089e+02	2.9089e+02	4.6617e-08
2.5000e+06	2.9615e+02	2.9615e+02	4.7460e-08
3.0000e+06	3.0038e+02	3.0038e+02	4.8138e-08
3.5000e+06	3.0391e+02	3.0391e+02	4.8703e-08
4.0000e+06	3.0694e+02	3.0694e+02	4.9188e-08
4.5000e+06	3.0958e+02	3.0958e+02	4.9612e-08
5.0000e+06	3.1193e+02	3.1193e+02	4.9988e-08
5.5000e+06	3.1404e+02	3.1404e+02	5.0327e-08
6.0000e+06	3.1595e+02	3.1595e+02	5.0633e-08
6.5000e+06	3.1770e+02	3.1770e+02	5.0914e-08
7.0000e+06	3.1932e+02	3.1932e+02	5.1172e-08
7.5000e+06	3.2081e+02	3.2081e+02	5.1412e-08
8.0000e+06	3.2220e+02	3.2220e+02	5.1635e-08
8.5000e+06	3.2351e+02	3.2351e+02	5.1844e-08
9.0000e+06	3.2473e+02	3.2473e+02	5.2041e-08
9.5000e+06	3.2589e+02	3.2589e+02	5.2226e-08
1.0000e+07	3.2698e+02	3.2698e+02	5.2401e-08