Energy
(MeV)	Elec. Stopping Power
(MeV cm2 g-1)	Ionizing Dose*
(MeV g-1)	Ionizing Dose*
(Gy)
1.0000e-05	3.7190e+00	3.7190e+00	5.9599e-10
1.5000e-05	4.5540e+00	4.5540e+00	7.2981e-10
2.0000e-05	5.2590e+00	5.2590e+00	8.4279e-10
2.5000e-05	5.8800e+00	5.8800e+00	9.4231e-10
3.0000e-05	6.4410e+00	6.4410e+00	1.0322e-09
3.5000e-05	6.9570e+00	6.9570e+00	1.1149e-09
4.0000e-05	7.4370e+00	7.4370e+00	1.1918e-09
4.5000e-05	7.8880e+00	7.8880e+00	1.2641e-09
5.0000e-05	8.3150e+00	8.3150e+00	1.3325e-09
5.5000e-05	8.7210e+00	8.7210e+00	1.3976e-09
6.0000e-05	9.1090e+00	9.1090e+00	1.4598e-09
6.5000e-05	9.4800e+00	9.4800e+00	1.5192e-09
7.0000e-05	9.8380e+00	9.8380e+00	1.5766e-09
7.5000e-05	1.0180e+01	1.0180e+01	1.6314e-09
8.0000e-05	1.0520e+01	1.0520e+01	1.6859e-09
8.5000e-05	1.0840e+01	1.0840e+01	1.7372e-09
9.0000e-05	1.1160e+01	1.1160e+01	1.7885e-09
9.5000e-05	1.1460e+01	1.1460e+01	1.8365e-09
1.0000e-04	1.1760e+01	1.1760e+01	1.8846e-09
1.5000e-04	1.4400e+01	1.4400e+01	2.3077e-09
2.0000e-04	1.6630e+01	1.6630e+01	2.6651e-09
2.5000e-04	1.8590e+01	1.8590e+01	2.9792e-09
3.0000e-04	2.0370e+01	2.0370e+01	3.2644e-09
3.5000e-04	2.2000e+01	2.2000e+01	3.5256e-09
4.0000e-04	2.3520e+01	2.3520e+01	3.7692e-09
4.5000e-04	2.4940e+01	2.4940e+01	3.9968e-09
5.0000e-04	2.6290e+01	2.6290e+01	4.2131e-09
5.5000e-04	2.7580e+01	2.7580e+01	4.4199e-09
6.0000e-04	2.8800e+01	2.8800e+01	4.6154e-09
6.5000e-04	2.9980e+01	2.9980e+01	4.8045e-09
7.0000e-04	3.1110e+01	3.1110e+01	4.9856e-09
7.5000e-04	3.2200e+01	3.2200e+01	5.1603e-09
8.0000e-04	3.3260e+01	3.3260e+01	5.3301e-09
8.5000e-04	3.4280e+01	3.4280e+01	5.4936e-09
9.0000e-04	3.5280e+01	3.5280e+01	5.6538e-09
9.5000e-04	3.6240e+01	3.6240e+01	5.8077e-09
1.0000e-03	3.7190e+01	3.7190e+01	5.9599e-09
1.5000e-03	4.5540e+01	4.5540e+01	7.2981e-09
2.0000e-03	5.2590e+01	5.2590e+01	8.4279e-09
2.5000e-03	5.8800e+01	5.8800e+01	9.4231e-09
3.0000e-03	6.4410e+01	6.4410e+01	1.0322e-08
3.5000e-03	6.9570e+01	6.9570e+01	1.1149e-08
4.0000e-03	7.4370e+01	7.4370e+01	1.1918e-08
4.5000e-03	7.8880e+01	7.8880e+01	1.2641e-08
5.0000e-03	8.3150e+01	8.3150e+01	1.3325e-08
5.5000e-03	8.7210e+01	8.7210e+01	1.3976e-08
6.0000e-03	9.1090e+01	9.1090e+01	1.4598e-08
6.5000e-03	9.4810e+01	9.4810e+01	1.5194e-08
7.0000e-03	9.8380e+01	9.8380e+01	1.5766e-08
7.5000e-03	1.0180e+02	1.0180e+02	1.6314e-08
8.0000e-03	1.0520e+02	1.0520e+02	1.6859e-08
8.5000e-03	1.0840e+02	1.0840e+02	1.7372e-08
9.0000e-03	1.1160e+02	1.1160e+02	1.7885e-08
9.5000e-03	1.1460e+02	1.1460e+02	1.8365e-08
1.0000e-02	1.1760e+02	1.1760e+02	1.8846e-08
1.5000e-02	1.4400e+02	1.4400e+02	2.3077e-08
2.0000e-02	1.6630e+02	1.6630e+02	2.6651e-08
2.5000e-02	1.8590e+02	1.8590e+02	2.9792e-08
3.0000e-02	2.0370e+02	2.0370e+02	3.2644e-08
3.5000e-02	2.2000e+02	2.2000e+02	3.5256e-08
4.0000e-02	2.3520e+02	2.3520e+02	3.7692e-08
4.5000e-02	2.4950e+02	2.4950e+02	3.9984e-08
5.0000e-02	2.7090e+02	2.7090e+02	4.3413e-08
5.5000e-02	2.9810e+02	2.9810e+02	4.7772e-08
6.0000e-02	3.1960e+02	3.1960e+02	5.1218e-08
6.5000e-02	3.3690e+02	3.3690e+02	5.3990e-08
7.0000e-02	3.5150e+02	3.5150e+02	5.6330e-08
7.5000e-02	3.6410e+02	3.6410e+02	5.8349e-08
8.0000e-02	3.7530e+02	3.7530e+02	6.0144e-08
8.5000e-02	3.8550e+02	3.8550e+02	6.1779e-08
9.0000e-02	3.9510e+02	3.9510e+02	6.3317e-08
9.5000e-02	4.0420e+02	4.0420e+02	6.4776e-08
1.0000e-01	4.1310e+02	4.1310e+02	6.6202e-08
1.5000e-01	4.9940e+02	4.9940e+02	8.0032e-08
2.0000e-01	5.9210e+02	5.9210e+02	9.4888e-08
2.5000e-01	6.8880e+02	6.8880e+02	1.1038e-07
3.0000e-01	7.8600e+02	7.8600e+02	1.2596e-07
3.5000e-01	8.8140e+02	8.8140e+02	1.4125e-07
4.0000e-01	9.7400e+02	9.7400e+02	1.5609e-07
4.5000e-01	1.0640e+03	1.0640e+03	1.7051e-07
5.0000e-01	1.1500e+03	1.1500e+03	1.8429e-07
5.5000e-01	1.2340e+03	1.2340e+03	1.9776e-07
6.0000e-01	1.3150e+03	1.3150e+03	2.1074e-07
6.5000e-01	1.3940e+03	1.3940e+03	2.2340e-07
7.0000e-01	1.4710e+03	1.4710e+03	2.3574e-07
7.5000e-01	1.5470e+03	1.5470e+03	2.4792e-07
8.0000e-01	1.6200e+03	1.6200e+03	2.5962e-07
8.5000e-01	1.6930e+03	1.6930e+03	2.7131e-07
9.0000e-01	1.7640e+03	1.7640e+03	2.8269e-07
9.5000e-01	1.8340e+03	1.8340e+03	2.9391e-07
1.0000e+00	1.9030e+03	1.9030e+03	3.0497e-07
1.5000e+00	2.5580e+03	2.5580e+03	4.0994e-07
2.0000e+00	3.1750e+03	3.1750e+03	5.0881e-07
2.5000e+00	3.7620e+03	3.7620e+03	6.0288e-07
3.0000e+00	4.3150e+03	4.3150e+03	6.9151e-07
3.5000e+00	4.8290e+03	4.8290e+03	7.7388e-07
4.0000e+00	5.3010e+03	5.3010e+03	8.4952e-07
4.5000e+00	5.7300e+03	5.7300e+03	9.1827e-07
5.0000e+00	6.1170e+03	6.1170e+03	9.8029e-07
5.5000e+00	6.4640e+03	6.4640e+03	1.0359e-06
6.0000e+00	6.7750e+03	6.7750e+03	1.0857e-06
6.5000e+00	7.0520e+03	7.0520e+03	1.1301e-06
7.0000e+00	7.2990e+03	7.2990e+03	1.1697e-06
7.5000e+00	7.5180e+03	7.5180e+03	1.2048e-06
8.0000e+00	7.7150e+03	7.7150e+03	1.2364e-06
8.5000e+00	7.8890e+03	7.8890e+03	1.2643e-06
9.0000e+00	8.0450e+03	8.0450e+03	1.2893e-06
9.5000e+00	8.1850e+03	8.1850e+03	1.3117e-06
1.0000e+01	8.3090e+03	8.3090e+03	1.3316e-06
1.5000e+01	8.9850e+03	8.9850e+03	1.4399e-06
2.0000e+01	9.1000e+03	9.1000e+03	1.4583e-06
2.5000e+01	8.9810e+03	8.9810e+03	1.4393e-06
3.0000e+01	8.7640e+03	8.7640e+03	1.4045e-06
3.5000e+01	8.5070e+03	8.5070e+03	1.3633e-06
4.0000e+01	8.2390e+03	8.2390e+03	1.3204e-06
4.5000e+01	7.9740e+03	7.9740e+03	1.2779e-06
5.0000e+01	7.7660e+03	7.7660e+03	1.2446e-06
5.5000e+01	7.5920e+03	7.5920e+03	1.2167e-06
6.0000e+01	7.3780e+03	7.3780e+03	1.1824e-06
6.5000e+01	7.1700e+03	7.1700e+03	1.1490e-06
7.0000e+01	6.9740e+03	6.9740e+03	1.1176e-06
7.5000e+01	6.7890e+03	6.7890e+03	1.0880e-06
8.0000e+01	6.6130e+03	6.6130e+03	1.0598e-06
8.5000e+01	6.4470e+03	6.4470e+03	1.0332e-06
9.0000e+01	6.2890e+03	6.2890e+03	1.0079e-06
9.5000e+01	6.1400e+03	6.1400e+03	9.8397e-07
1.0000e+02	5.9970e+03	5.9970e+03	9.6106e-07
1.5000e+02	4.8790e+03	4.8790e+03	7.8189e-07
2.0000e+02	4.1230e+03	4.1230e+03	6.6074e-07
2.5000e+02	3.5780e+03	3.5780e+03	5.7340e-07
3.0000e+02	3.1670e+03	3.1670e+03	5.0753e-07
3.5000e+02	2.8490e+03	2.8490e+03	4.5657e-07
4.0000e+02	2.5960e+03	2.5960e+03	4.1603e-07
4.5000e+02	2.3930e+03	2.3930e+03	3.8349e-07
5.0000e+02	2.2260e+03	2.2260e+03	3.5673e-07
5.5000e+02	2.0880e+03	2.0880e+03	3.3462e-07
6.0000e+02	1.9730e+03	1.9730e+03	3.1619e-07
6.5000e+02	1.8750e+03	1.8750e+03	3.0048e-07
7.0000e+02	1.7920e+03	1.7920e+03	2.8718e-07
7.5000e+02	1.7080e+03	1.7080e+03	2.7372e-07
8.0000e+02	1.6260e+03	1.6260e+03	2.6058e-07
8.5000e+02	1.5520e+03	1.5520e+03	2.4872e-07
9.0000e+02	1.4850e+03	1.4850e+03	2.3798e-07
9.5000e+02	1.4250e+03	1.4250e+03	2.2837e-07
1.0000e+03	1.3707e+03	1.3707e+03	2.1967e-07
1.5000e+03	1.0110e+03	1.0110e+03	1.6202e-07
2.0000e+03	8.1753e+02	8.1753e+02	1.3101e-07
2.5000e+03	6.9651e+02	6.9651e+02	1.1162e-07
3.0000e+03	6.1311e+02	6.1311e+02	9.8255e-08
3.5000e+03	5.5142e+02	5.5142e+02	8.8369e-08
4.0000e+03	5.0440e+02	5.0440e+02	8.0833e-08
4.5000e+03	4.6736e+02	4.6736e+02	7.4897e-08
5.0000e+03	4.3744e+02	4.3744e+02	7.0102e-08
5.5000e+03	4.1277e+02	4.1277e+02	6.6149e-08
6.0000e+03	3.9210e+02	3.9210e+02	6.2837e-08
6.5000e+03	3.7454e+02	3.7454e+02	6.0023e-08
7.0000e+03	3.5945e+02	3.5945e+02	5.7604e-08
7.5000e+03	3.4635e+02	3.4635e+02	5.5504e-08
8.0000e+03	3.3488e+02	3.3488e+02	5.3666e-08
8.5000e+03	3.2476e+02	3.2476e+02	5.2045e-08
9.0000e+03	3.1578e+02	3.1578e+02	5.0605e-08
9.5000e+03	3.0776e+02	3.0776e+02	4.9320e-08
1.0000e+04	3.0056e+02	3.0056e+02	4.8166e-08
1.5000e+04	2.5598e+02	2.5598e+02	4.1022e-08
2.0000e+04	2.3533e+02	2.3533e+02	3.7714e-08
2.5000e+04	2.2418e+02	2.2418e+02	3.5926e-08
3.0000e+04	2.1772e+02	2.1772e+02	3.4890e-08
3.5000e+04	2.1387e+02	2.1387e+02	3.4275e-08
4.0000e+04	2.1160e+02	2.1160e+02	3.3910e-08
4.5000e+04	2.1032e+02	2.1032e+02	3.3705e-08
5.0000e+04	2.0969e+02	2.0969e+02	3.3604e-08
5.5000e+04	2.0950e+02	2.0950e+02	3.3573e-08
6.0000e+04	2.0961e+02	2.0961e+02	3.3592e-08
6.5000e+04	2.0994e+02	2.0994e+02	3.3644e-08
7.0000e+04	2.1042e+02	2.1042e+02	3.3721e-08
7.5000e+04	2.1101e+02	2.1101e+02	3.3815e-08
8.0000e+04	2.1167e+02	2.1167e+02	3.3921e-08
8.5000e+04	2.1238e+02	2.1238e+02	3.4036e-08
9.0000e+04	2.1313e+02	2.1313e+02	3.4156e-08
9.5000e+04	2.1391e+02	2.1391e+02	3.4280e-08
1.0000e+05	2.1470e+02	2.1470e+02	3.4406e-08
1.5000e+05	2.2244e+02	2.2244e+02	3.5647e-08
2.0000e+05	2.2910e+02	2.2910e+02	3.6714e-08
2.5000e+05	2.3467e+02	2.3467e+02	3.7608e-08
3.0000e+05	2.3941e+02	2.3941e+02	3.8366e-08
3.5000e+05	2.4349e+02	2.4349e+02	3.9021e-08
4.0000e+05	2.4707e+02	2.4707e+02	3.9595e-08
4.5000e+05	2.5025e+02	2.5025e+02	4.0105e-08
5.0000e+05	2.5311e+02	2.5311e+02	4.0562e-08
5.5000e+05	2.5570e+02	2.5570e+02	4.0977e-08
6.0000e+05	2.5806e+02	2.5806e+02	4.1357e-08
6.5000e+05	2.6024e+02	2.6024e+02	4.1705e-08
7.0000e+05	2.6225e+02	2.6225e+02	4.2028e-08
7.5000e+05	2.6413e+02	2.6413e+02	4.2328e-08
8.0000e+05	2.6588e+02	2.6588e+02	4.2609e-08
8.5000e+05	2.6752e+02	2.6752e+02	4.2872e-08
9.0000e+05	2.6907e+02	2.6907e+02	4.3120e-08
9.5000e+05	2.7053e+02	2.7053e+02	4.3353e-08
1.0000e+06	2.7191e+02	2.7191e+02	4.3575e-08
1.5000e+06	2.8251e+02	2.8251e+02	4.5274e-08
2.0000e+06	2.8971e+02	2.8971e+02	4.6427e-08
2.5000e+06	2.9516e+02	2.9516e+02	4.7302e-08
3.0000e+06	2.9954e+02	2.9954e+02	4.8003e-08
3.5000e+06	3.0319e+02	3.0319e+02	4.8588e-08
4.0000e+06	3.0631e+02	3.0631e+02	4.9088e-08
4.5000e+06	3.0903e+02	3.0903e+02	4.9524e-08
5.0000e+06	3.1144e+02	3.1144e+02	4.9911e-08
5.5000e+06	3.1361e+02	3.1361e+02	5.0257e-08
6.0000e+06	3.1557e+02	3.1557e+02	5.0572e-08
6.5000e+06	3.1736e+02	3.1736e+02	5.0859e-08
7.0000e+06	3.1901e+02	3.1901e+02	5.1123e-08
7.5000e+06	3.2053e+02	3.2053e+02	5.1367e-08
8.0000e+06	3.2195e+02	3.2195e+02	5.1595e-08
8.5000e+06	3.2328e+02	3.2328e+02	5.1808e-08
9.0000e+06	3.2452e+02	3.2452e+02	5.2007e-08
9.5000e+06	3.2570e+02	3.2570e+02	5.2195e-08
1.0000e+07	3.2681e+02	3.2681e+02	5.2373e-08