'*',    13,     3,     4,     0,     5,     5,    46,     2
'OMNIDIRECTIONAL FLUENCE ANALYSIS'
'MULASSIS ml-v01-19'
'geant4-09-02-ref-00 (19-December-2008)'
'FLU_BDY', 1, 2, ' '
'FLU_PAR, -1, proton  '
'FLU_AMN', 1, 0., 'deg'
'FLU_AMX', 1, 90., 'deg'
'Elo','keV', 1, ' Lower edge of energy    bin '
'Eup','keV', 1, ' Upper edge of energy    bin '
'Emean','keV', 1, ' Mean energy of bin '
'Value','particles/cm2/bin',1,             'Fluence/flux'
'Error','particles/cm2/bin',1,'Error in   fluence/flux'
  0.000000E+00,   4.000000E+01,   2.000000E+01,   1.799226E+06,   0.000000E+00
  4.000000E+01,   1.000000E+02,   7.000000E+01,   2.698839E+06,   0.000000E+00
  1.000000E+02,   2.000000E+02,   1.500000E+02,   4.498065E+06,   0.000000E+00
  2.000000E+02,   3.000000E+02,   2.500000E+02,   4.876908E+06,   0.000000E+00
  3.000000E+02,   4.000000E+02,   3.500000E+02,   5.583495E+06,   0.000000E+00
  4.000000E+02,   5.000000E+02,   4.500000E+02,   6.214388E+06,   0.000000E+00
  5.000000E+02,   6.000000E+02,   5.500000E+02,   7.274237E+06,   0.000000E+00
  6.000000E+02,   7.000000E+02,   6.500000E+02,   7.599214E+06,   0.000000E+00
  7.000000E+02,   8.000000E+02,   7.500000E+02,   8.817163E+06,   0.000000E+00
  8.000000E+02,   1.000000E+03,   9.000000E+02,   1.923323E+07,   0.000000E+00
  1.000000E+03,   1.250000E+03,   1.125000E+03,   2.882264E+07,   0.000000E+00
  1.250000E+03,   1.500000E+03,   1.375000E+03,   3.377303E+07,   0.000000E+00
  1.500000E+03,   1.750000E+03,   1.625000E+03,   3.860316E+07,   0.000000E+00
  1.750000E+03,   2.000000E+03,   1.875000E+03,   4.463015E+07,   0.000000E+00
  2.000000E+03,   2.250000E+03,   2.125000E+03,   5.095750E+07,   0.000000E+00
  2.250000E+03,   2.500000E+03,   2.375000E+03,   5.734990E+07,   0.000000E+00
  2.500000E+03,   2.750000E+03,   2.625000E+03,   6.532834E+07,   0.000000E+00
  2.750000E+03,   3.000000E+03,   2.875000E+03,   7.441218E+07,   0.000000E+00
  3.000000E+03,   3.250000E+03,   3.125000E+03,   8.533795E+07,   0.000000E+00
  3.250000E+03,   3.500000E+03,   3.375000E+03,   9.691523E+07,   0.000000E+00
  3.500000E+03,   3.750000E+03,   3.625000E+03,   1.021914E+08,   0.000000E+00
  3.750000E+03,   4.000000E+03,   3.875000E+03,   8.467929E+07,   0.000000E+00
  4.000000E+03,   4.250000E+03,   4.125000E+03,   6.664790E+07,   0.000000E+00
  4.250000E+03,   4.500000E+03,   4.375000E+03,   7.345608E+07,   0.000000E+00
  4.500000E+03,   4.750000E+03,   4.625000E+03,   7.985331E+07,   0.000000E+00
  4.750000E+03,   5.000000E+03,   4.875000E+03,   9.194165E+07,   0.000000E+00
  5.000000E+03,   5.500000E+03,   5.250000E+03,   1.579123E+08,   0.000000E+00
  5.500000E+03,   6.000000E+03,   5.750000E+03,   1.127256E+08,   0.000000E+00
  6.000000E+03,   6.500000E+03,   6.250000E+03,   1.379993E+08,   0.000000E+00
  6.500000E+03,   7.000000E+03,   6.750000E+03,   1.318350E+08,   0.000000E+00
  7.000000E+03,   1.000000E+04,   8.500000E+03,   6.746015E+08,   0.000000E+00
  1.000000E+04,   2.000000E+04,   1.500000E+04,   1.981790E+09,   0.000000E+00
  2.000000E+04,   3.000000E+04,   2.500000E+04,   1.512265E+09,   0.000000E+00
  3.000000E+04,   4.000000E+04,   3.500000E+04,   8.208246E+08,   0.000000E+00
  4.000000E+04,   5.000000E+04,   4.500000E+04,   5.495368E+08,   0.000000E+00
  5.000000E+04,   6.000000E+04,   5.500000E+04,   3.275688E+08,   0.000000E+00
  6.000000E+04,   7.000000E+04,   6.500000E+04,   2.651846E+08,   0.000000E+00
  7.000000E+04,   8.000000E+04,   7.500000E+04,   1.345305E+08,   0.000000E+00
  8.000000E+04,   1.000000E+05,   9.000000E+04,   1.887347E+08,   0.000000E+00
  1.000000E+05,   1.500000E+05,   1.250000E+05,   1.505508E+08,   0.000000E+00
  1.500000E+05,   2.000000E+05,   1.750000E+05,   4.782729E+07,   0.000000E+00
  2.000000E+05,   3.000000E+05,   2.500000E+05,   3.588624E+07,   0.000000E+00
  3.000000E+05,   4.000000E+05,   3.500000E+05,   9.455844E+06,   0.000000E+00
  4.000000E+05,   5.000000E+05,   4.500000E+05,   2.339958E+06,   0.000000E+00
  5.000000E+05,   8.000000E+05,   6.500000E+05,   9.265576E+05,   0.000000E+00
  8.000000E+05,   1.000000E+06,   0.000000E+00,   0.000000E+00,   0.000000E+00
'End of Block'
'*',    13,     3,     4,     0,     5,     5,    46,     1
'OMNIDIRECTIONAL FLUENCE ANALYSIS'
'MULASSIS ml-v01-19'
'geant4-09-02-ref-00 (19-December-2008)'
'FLU_BDY', 1, 2, ' '
'FLU_PAR, -1, e-      '
'FLU_AMN', 1, 0., 'deg'
'FLU_AMX', 1, 90., 'deg'
'Elo','keV', 1, ' Lower edge of energy    bin '
'Eup','keV', 1, ' Upper edge of energy    bin '
'Emean','keV', 1, ' Mean energy of bin '
'Value','particles/cm2/bin',1,             'Fluence/flux'
'Error','particles/cm2/bin',1,'Error in   fluence/flux'
  0.000000E+00,   4.000000E+01,   2.000000E+01,   6.561292E+12,   0.000000E+00
  4.000000E+01,   1.000000E+02,   7.000000E+01,   1.098548E+13,   0.000000E+00
  1.000000E+02,   2.000000E+02,   1.500000E+02,   2.356412E+13,   0.000000E+00
  2.000000E+02,   3.000000E+02,   2.500000E+02,   2.518558E+13,   0.000000E+00
  3.000000E+02,   4.000000E+02,   3.500000E+02,   2.051032E+13,   0.000000E+00
  4.000000E+02,   5.000000E+02,   4.500000E+02,   1.808741E+13,   0.000000E+00
  5.000000E+02,   6.000000E+02,   5.500000E+02,   1.471101E+13,   0.000000E+00
  6.000000E+02,   7.000000E+02,   6.500000E+02,   1.193527E+13,   0.000000E+00
  7.000000E+02,   8.000000E+02,   7.500000E+02,   8.539433E+12,   0.000000E+00
  8.000000E+02,   1.000000E+03,   9.000000E+02,   9.985268E+12,   0.000000E+00
  1.000000E+03,   1.250000E+03,   1.125000E+03,   6.067936E+12,   0.000000E+00
  1.250000E+03,   1.500000E+03,   1.375000E+03,   2.941559E+12,   0.000000E+00
  1.500000E+03,   1.750000E+03,   1.625000E+03,   1.728409E+12,   0.000000E+00
  1.750000E+03,   2.000000E+03,   1.875000E+03,   1.113551E+12,   0.000000E+00
  2.000000E+03,   2.250000E+03,   2.125000E+03,   6.182870E+11,   0.000000E+00
  2.250000E+03,   2.500000E+03,   2.375000E+03,   2.856109E+11,   0.000000E+00
  2.500000E+03,   2.750000E+03,   2.625000E+03,   1.657002E+11,   0.000000E+00
  2.750000E+03,   3.000000E+03,   2.875000E+03,   8.722124E+10,   0.000000E+00
  3.000000E+03,   3.250000E+03,   3.125000E+03,   4.818092E+10,   0.000000E+00
  3.250000E+03,   3.500000E+03,   3.375000E+03,   3.236437E+10,   0.000000E+00
  3.500000E+03,   3.750000E+03,   3.625000E+03,   1.694991E+10,   0.000000E+00
  3.750000E+03,   4.000000E+03,   3.875000E+03,   9.272803E+09,   0.000000E+00
  4.000000E+03,   4.250000E+03,   4.125000E+03,   4.840538E+09,   0.000000E+00
  4.250000E+03,   4.500000E+03,   4.375000E+03,   2.686648E+09,   0.000000E+00
  4.500000E+03,   4.750000E+03,   4.625000E+03,   5.832325E+08,   0.000000E+00
  4.750000E+03,   5.000000E+03,   4.875000E+03,   8.266796E+07,   0.000000E+00
  5.000000E+03,   5.500000E+03,   5.250000E+03,   2.229583E+04,   0.000000E+00
  5.500000E+03,   6.000000E+03,   5.750000E+03,   2.229583E+04,   0.000000E+00
  6.000000E+03,   6.500000E+03,   6.250000E+03,   2.229583E+04,   0.000000E+00
  6.500000E+03,   7.000000E+03,   6.750000E+03,   2.229583E+04,   0.000000E+00
  7.000000E+03,   1.000000E+04,   8.500000E+03,   1.259872E+05,   0.000000E+00
  1.000000E+04,   2.000000E+04,   1.500000E+04,   2.130423E+05,   0.000000E+00
  2.000000E+04,   3.000000E+04,   2.500000E+04,   6.084823E+04,   0.000000E+00
  3.000000E+04,   4.000000E+04,   3.500000E+04,   1.891208E+04,   0.000000E+00
  4.000000E+04,   5.000000E+04,   4.500000E+04,   7.437325E+03,   0.000000E+00
  5.000000E+04,   6.000000E+04,   5.500000E+04,   3.638204E+03,   0.000000E+00
  6.000000E+04,   7.000000E+04,   6.500000E+04,   2.054532E+03,   0.000000E+00
  7.000000E+04,   8.000000E+04,   7.500000E+04,   1.196495E+03,   0.000000E+00
  8.000000E+04,   1.000000E+05,   9.000000E+04,   1.277613E+03,   0.000000E+00
  1.000000E+05,   1.500000E+05,   1.250000E+05,   1.139329E+03,   0.000000E+00
  1.500000E+05,   2.000000E+05,   1.750000E+05,   3.033408E+02,   0.000000E+00
  2.000000E+05,   3.000000E+05,   2.500000E+05,   1.379487E+02,   0.000000E+00
  3.000000E+05,   4.000000E+05,   3.500000E+05,   2.671575E+01,   0.000000E+00
  4.000000E+05,   5.000000E+05,   4.500000E+05,   6.976628E+00,   0.000000E+00
  5.000000E+05,   8.000000E+05,   6.500000E+05,   8.939552E-01,   0.000000E+00
  8.000000E+05,   1.000000E+06,   0.000000E+00,   0.000000E+00,   0.000000E+00
'End of Block'
'*',    13,     3,     4,     0,     5,     5,    46,    -1
'OMNIDIRECTIONAL FLUENCE ANALYSIS'
'MULASSIS ml-v01-19'
'geant4-09-02-ref-00 (19-December-2008)'
'FLU_BDY', 1, 2, ' '
'FLU_PAR, -1, neutron '
'FLU_AMN', 1, 0., 'deg'
'FLU_AMX', 1, 90., 'deg'
'Elo','keV', 1, ' Lower edge of energy    bin '
'Eup','keV', 1, ' Upper edge of energy    bin '
'Emean','keV', 1, ' Mean energy of bin '
'Value','particles/cm2/bin',1,             'Fluence/flux'
'Error','particles/cm2/bin',1,'Error in   fluence/flux'
  0.000000E+00,   4.000000E+01,   2.000000E+01,   1.353934E+05,   0.000000E+00
  4.000000E+01,   1.000000E+02,   7.000000E+01,   2.030901E+05,   0.000000E+00
  1.000000E+02,   2.000000E+02,   1.500000E+02,   3.384835E+05,   0.000000E+00
  2.000000E+02,   3.000000E+02,   2.500000E+02,   3.384147E+05,   0.000000E+00
  3.000000E+02,   4.000000E+02,   3.500000E+02,   3.382865E+05,   0.000000E+00
  4.000000E+02,   5.000000E+02,   4.500000E+02,   3.375442E+05,   0.000000E+00
  5.000000E+02,   6.000000E+02,   5.500000E+02,   3.331217E+05,   0.000000E+00
  6.000000E+02,   7.000000E+02,   6.500000E+02,   3.251630E+05,   0.000000E+00
  7.000000E+02,   8.000000E+02,   7.500000E+02,   3.152497E+05,   0.000000E+00
  8.000000E+02,   1.000000E+03,   9.000000E+02,   5.987634E+05,   0.000000E+00
  1.000000E+03,   1.250000E+03,   1.125000E+03,   6.853700E+05,   0.000000E+00
  1.250000E+03,   1.500000E+03,   1.375000E+03,   6.124787E+05,   0.000000E+00
  1.500000E+03,   1.750000E+03,   1.625000E+03,   5.471982E+05,   0.000000E+00
  1.750000E+03,   2.000000E+03,   1.875000E+03,   4.909121E+05,   0.000000E+00
  2.000000E+03,   2.250000E+03,   2.125000E+03,   4.472503E+05,   0.000000E+00
  2.250000E+03,   2.500000E+03,   2.375000E+03,   4.130651E+05,   0.000000E+00
  2.500000E+03,   2.750000E+03,   2.625000E+03,   3.814937E+05,   0.000000E+00
  2.750000E+03,   3.000000E+03,   2.875000E+03,   3.529244E+05,   0.000000E+00
  3.000000E+03,   3.250000E+03,   3.125000E+03,   3.287196E+05,   0.000000E+00
  3.250000E+03,   3.500000E+03,   3.375000E+03,   3.067329E+05,   0.000000E+00
  3.500000E+03,   3.750000E+03,   3.625000E+03,   2.867752E+05,   0.000000E+00
  3.750000E+03,   4.000000E+03,   3.875000E+03,   2.661006E+05,   0.000000E+00
  4.000000E+03,   4.250000E+03,   4.125000E+03,   2.543182E+05,   0.000000E+00
  4.250000E+03,   4.500000E+03,   4.375000E+03,   2.319962E+05,   0.000000E+00
  4.500000E+03,   4.750000E+03,   4.625000E+03,   2.258699E+05,   0.000000E+00
  4.750000E+03,   5.000000E+03,   4.875000E+03,   2.059484E+05,   0.000000E+00
  5.000000E+03,   5.500000E+03,   5.250000E+03,   3.849323E+05,   0.000000E+00
  5.500000E+03,   6.000000E+03,   5.750000E+03,   3.415624E+05,   0.000000E+00
  6.000000E+03,   6.500000E+03,   6.250000E+03,   3.022761E+05,   0.000000E+00
  6.500000E+03,   7.000000E+03,   6.750000E+03,   2.709860E+05,   0.000000E+00
  7.000000E+03,   1.000000E+04,   8.500000E+03,   1.139888E+06,   0.000000E+00
  1.000000E+04,   2.000000E+04,   1.500000E+04,   1.625953E+06,   0.000000E+00
  2.000000E+04,   3.000000E+04,   2.500000E+04,   7.418935E+05,   0.000000E+00
  3.000000E+04,   4.000000E+04,   3.500000E+04,   3.584729E+05,   0.000000E+00
  4.000000E+04,   5.000000E+04,   4.500000E+04,   2.007227E+05,   0.000000E+00
  5.000000E+04,   6.000000E+04,   5.500000E+04,   1.233258E+05,   0.000000E+00
  6.000000E+04,   7.000000E+04,   6.500000E+04,   8.412532E+04,   0.000000E+00
  7.000000E+04,   8.000000E+04,   7.500000E+04,   5.784559E+04,   0.000000E+00
  8.000000E+04,   1.000000E+05,   9.000000E+04,   7.030401E+04,   0.000000E+00
  1.000000E+05,   1.500000E+05,   1.250000E+05,   7.915385E+04,   0.000000E+00
  1.500000E+05,   2.000000E+05,   1.750000E+05,   3.048469E+04,   0.000000E+00
  2.000000E+05,   3.000000E+05,   2.500000E+05,   1.616233E+04,   0.000000E+00
  3.000000E+05,   4.000000E+05,   3.500000E+05,   2.338679E+03,   0.000000E+00
  4.000000E+05,   5.000000E+05,   4.500000E+05,   5.224870E+02,   0.000000E+00
  5.000000E+05,   8.000000E+05,   6.500000E+05,   4.743926E+01,   0.000000E+00
  8.000000E+05,   1.000000E+06,   0.000000E+00,   0.000000E+00,   0.000000E+00
'End of File'
