'*',    13,     3,     4,     0,     5,     5,    46,     2
'OMNIDIRECTIONAL FLUENCE ANALYSIS'
'MULASSIS ml-v01-19'
'geant4-09-02-ref-00 (19-December-2008)'
'FLU_BDY', 1, 2, ' '
'FLU_PAR, -1, proton  '
'FLU_AMN', 1, 0., 'deg'
'FLU_AMX', 1, 90., 'deg'
'Elo','keV', 1, ' Lower edge of energy    bin '
'Eup','keV', 1, ' Upper edge of energy    bin '
'Emean','keV', 1, ' Mean energy of bin '
'Value','particles/cm2/bin',1,             'Fluence/flux'
'Error','particles/cm2/bin',1,'Error in   fluence/flux'
  0.000000E+00,   4.000000E+01,   2.000000E+01,   1.809362E+06,   0.000000E+00
  4.000000E+01,   1.000000E+02,   7.000000E+01,   2.714043E+06,   0.000000E+00
  1.000000E+02,   2.000000E+02,   1.500000E+02,   4.523405E+06,   0.000000E+00
  2.000000E+02,   3.000000E+02,   2.500000E+02,   4.904381E+06,   0.000000E+00
  3.000000E+02,   4.000000E+02,   3.500000E+02,   5.614918E+06,   0.000000E+00
  4.000000E+02,   5.000000E+02,   4.500000E+02,   6.249381E+06,   0.000000E+00
  5.000000E+02,   6.000000E+02,   5.500000E+02,   7.315203E+06,   0.000000E+00
  6.000000E+02,   7.000000E+02,   6.500000E+02,   7.642010E+06,   0.000000E+00
  7.000000E+02,   8.000000E+02,   7.500000E+02,   8.866769E+06,   0.000000E+00
  8.000000E+02,   1.000000E+03,   9.000000E+02,   1.934152E+07,   0.000000E+00
  1.000000E+03,   1.250000E+03,   1.125000E+03,   2.898486E+07,   0.000000E+00
  1.250000E+03,   1.500000E+03,   1.375000E+03,   3.396321E+07,   0.000000E+00
  1.500000E+03,   1.750000E+03,   1.625000E+03,   3.882041E+07,   0.000000E+00
  1.750000E+03,   2.000000E+03,   1.875000E+03,   4.488137E+07,   0.000000E+00
  2.000000E+03,   2.250000E+03,   2.125000E+03,   5.124429E+07,   0.000000E+00
  2.250000E+03,   2.500000E+03,   2.375000E+03,   5.767266E+07,   0.000000E+00
  2.500000E+03,   2.750000E+03,   2.625000E+03,   6.569605E+07,   0.000000E+00
  2.750000E+03,   3.000000E+03,   2.875000E+03,   7.483087E+07,   0.000000E+00
  3.000000E+03,   3.250000E+03,   3.125000E+03,   8.581817E+07,   0.000000E+00
  3.250000E+03,   3.500000E+03,   3.375000E+03,   9.746053E+07,   0.000000E+00
  3.500000E+03,   3.750000E+03,   3.625000E+03,   1.027665E+08,   0.000000E+00
  3.750000E+03,   4.000000E+03,   3.875000E+03,   8.515558E+07,   0.000000E+00
  4.000000E+03,   4.250000E+03,   4.125000E+03,   6.702255E+07,   0.000000E+00
  4.250000E+03,   4.500000E+03,   4.375000E+03,   7.386898E+07,   0.000000E+00
  4.500000E+03,   4.750000E+03,   4.625000E+03,   8.030199E+07,   0.000000E+00
  4.750000E+03,   5.000000E+03,   4.875000E+03,   9.245827E+07,   0.000000E+00
  5.000000E+03,   5.500000E+03,   5.250000E+03,   1.588025E+08,   0.000000E+00
  5.500000E+03,   6.000000E+03,   5.750000E+03,   1.133674E+08,   0.000000E+00
  6.000000E+03,   6.500000E+03,   6.250000E+03,   1.387857E+08,   0.000000E+00
  6.500000E+03,   7.000000E+03,   6.750000E+03,   1.325842E+08,   0.000000E+00
  7.000000E+03,   1.000000E+04,   8.500000E+03,   6.784153E+08,   0.000000E+00
  1.000000E+04,   2.000000E+04,   1.500000E+04,   1.993046E+09,   0.000000E+00
  2.000000E+04,   3.000000E+04,   2.500000E+04,   1.520697E+09,   0.000000E+00
  3.000000E+04,   4.000000E+04,   3.500000E+04,   8.254410E+08,   0.000000E+00
  4.000000E+04,   5.000000E+04,   4.500000E+04,   5.526221E+08,   0.000000E+00
  5.000000E+04,   6.000000E+04,   5.500000E+04,   3.294606E+08,   0.000000E+00
  6.000000E+04,   7.000000E+04,   6.500000E+04,   2.666691E+08,   0.000000E+00
  7.000000E+04,   8.000000E+04,   7.500000E+04,   1.352901E+08,   0.000000E+00
  8.000000E+04,   1.000000E+05,   9.000000E+04,   1.897935E+08,   0.000000E+00
  1.000000E+05,   1.500000E+05,   1.250000E+05,   1.514023E+08,   0.000000E+00
  1.500000E+05,   2.000000E+05,   1.750000E+05,   4.809846E+07,   0.000000E+00
  2.000000E+05,   3.000000E+05,   2.500000E+05,   3.608819E+07,   0.000000E+00
  3.000000E+05,   4.000000E+05,   3.500000E+05,   9.509662E+06,   0.000000E+00
  4.000000E+05,   5.000000E+05,   4.500000E+05,   2.352893E+06,   0.000000E+00
  5.000000E+05,   8.000000E+05,   6.500000E+05,   9.317868E+05,   0.000000E+00
  8.000000E+05,   1.000000E+06,   0.000000E+00,   0.000000E+00,   0.000000E+00
'End of Block'
'*',    13,     3,     4,     0,     5,     5,    46,     1
'OMNIDIRECTIONAL FLUENCE ANALYSIS'
'MULASSIS ml-v01-19'
'geant4-09-02-ref-00 (19-December-2008)'
'FLU_BDY', 1, 2, ' '
'FLU_PAR, -1, e-      '
'FLU_AMN', 1, 0., 'deg'
'FLU_AMX', 1, 90., 'deg'
'Elo','keV', 1, ' Lower edge of energy    bin '
'Eup','keV', 1, ' Upper edge of energy    bin '
'Emean','keV', 1, ' Mean energy of bin '
'Value','particles/cm2/bin',1,             'Fluence/flux'
'Error','particles/cm2/bin',1,'Error in   fluence/flux'
  0.000000E+00,   4.000000E+01,   2.000000E+01,   2.084639E+09,   0.000000E+00
  4.000000E+01,   1.000000E+02,   7.000000E+01,   1.581575E+08,   0.000000E+00
  1.000000E+02,   2.000000E+02,   1.500000E+02,   2.588536E+07,   0.000000E+00
  2.000000E+02,   3.000000E+02,   2.500000E+02,   3.989974E+06,   0.000000E+00
  3.000000E+02,   4.000000E+02,   3.500000E+02,   1.036881E+06,   0.000000E+00
  4.000000E+02,   5.000000E+02,   4.500000E+02,   3.271079E+05,   0.000000E+00
  5.000000E+02,   6.000000E+02,   5.500000E+02,   1.338103E+05,   0.000000E+00
  6.000000E+02,   7.000000E+02,   6.500000E+02,   5.784568E+04,   0.000000E+00
  7.000000E+02,   8.000000E+02,   7.500000E+02,   2.768174E+04,   0.000000E+00
  8.000000E+02,   1.000000E+03,   9.000000E+02,   2.404477E+04,   0.000000E+00
  1.000000E+03,   1.250000E+03,   1.125000E+03,   1.561319E+04,   0.000000E+00
  1.250000E+03,   1.500000E+03,   1.375000E+03,   1.194798E+04,   0.000000E+00
  1.500000E+03,   1.750000E+03,   1.625000E+03,   1.128576E+04,   0.000000E+00
  1.750000E+03,   2.000000E+03,   1.875000E+03,   1.123530E+04,   0.000000E+00
  2.000000E+03,   2.250000E+03,   2.125000E+03,   1.122520E+04,   0.000000E+00
  2.250000E+03,   2.500000E+03,   2.375000E+03,   1.121835E+04,   0.000000E+00
  2.500000E+03,   2.750000E+03,   2.625000E+03,   1.121515E+04,   0.000000E+00
  2.750000E+03,   3.000000E+03,   2.875000E+03,   1.121315E+04,   0.000000E+00
  3.000000E+03,   3.250000E+03,   3.125000E+03,   1.121292E+04,   0.000000E+00
  3.250000E+03,   3.500000E+03,   3.375000E+03,   1.121250E+04,   0.000000E+00
  3.500000E+03,   3.750000E+03,   3.625000E+03,   1.121083E+04,   0.000000E+00
  3.750000E+03,   4.000000E+03,   3.875000E+03,   1.121083E+04,   0.000000E+00
  4.000000E+03,   4.250000E+03,   4.125000E+03,   1.121083E+04,   0.000000E+00
  4.250000E+03,   4.500000E+03,   4.375000E+03,   1.121083E+04,   0.000000E+00
  4.500000E+03,   4.750000E+03,   4.625000E+03,   1.121083E+04,   0.000000E+00
  4.750000E+03,   5.000000E+03,   4.875000E+03,   1.121083E+04,   0.000000E+00
  5.000000E+03,   5.500000E+03,   5.250000E+03,   2.242165E+04,   0.000000E+00
  5.500000E+03,   6.000000E+03,   5.750000E+03,   2.242165E+04,   0.000000E+00
  6.000000E+03,   6.500000E+03,   6.250000E+03,   2.242165E+04,   0.000000E+00
  6.500000E+03,   7.000000E+03,   6.750000E+03,   2.242165E+04,   0.000000E+00
  7.000000E+03,   1.000000E+04,   8.500000E+03,   1.266985E+05,   0.000000E+00
  1.000000E+04,   2.000000E+04,   1.500000E+04,   2.142460E+05,   0.000000E+00
  2.000000E+04,   3.000000E+04,   2.500000E+04,   6.118952E+04,   0.000000E+00
  3.000000E+04,   4.000000E+04,   3.500000E+04,   1.901868E+04,   0.000000E+00
  4.000000E+04,   5.000000E+04,   4.500000E+04,   7.479401E+03,   0.000000E+00
  5.000000E+04,   6.000000E+04,   5.500000E+04,   3.658857E+03,   0.000000E+00
  6.000000E+04,   7.000000E+04,   6.500000E+04,   2.066076E+03,   0.000000E+00
  7.000000E+04,   8.000000E+04,   7.500000E+04,   1.203236E+03,   0.000000E+00
  8.000000E+04,   1.000000E+05,   9.000000E+04,   1.284829E+03,   0.000000E+00
  1.000000E+05,   1.500000E+05,   1.250000E+05,   1.145753E+03,   0.000000E+00
  1.500000E+05,   2.000000E+05,   1.750000E+05,   3.050553E+02,   0.000000E+00
  2.000000E+05,   3.000000E+05,   2.500000E+05,   1.387264E+02,   0.000000E+00
  3.000000E+05,   4.000000E+05,   3.500000E+05,   2.686719E+01,   0.000000E+00
  4.000000E+05,   5.000000E+05,   4.500000E+05,   7.015709E+00,   0.000000E+00
  5.000000E+05,   8.000000E+05,   6.500000E+05,   8.990004E-01,   0.000000E+00
  8.000000E+05,   1.000000E+06,   0.000000E+00,   0.000000E+00,   0.000000E+00
'End of Block'
'*',    13,     3,     4,     0,     5,     5,    46,    -1
'OMNIDIRECTIONAL FLUENCE ANALYSIS'
'MULASSIS ml-v01-19'
'geant4-09-02-ref-00 (19-December-2008)'
'FLU_BDY', 1, 2, ' '
'FLU_PAR, -1, neutron '
'FLU_AMN', 1, 0., 'deg'
'FLU_AMX', 1, 90., 'deg'
'Elo','keV', 1, ' Lower edge of energy    bin '
'Eup','keV', 1, ' Upper edge of energy    bin '
'Emean','keV', 1, ' Mean energy of bin '
'Value','particles/cm2/bin',1,             'Fluence/flux'
'Error','particles/cm2/bin',1,'Error in   fluence/flux'
  0.000000E+00,   4.000000E+01,   2.000000E+01,   1.361570E+05,   0.000000E+00
  4.000000E+01,   1.000000E+02,   7.000000E+01,   2.042356E+05,   0.000000E+00
  1.000000E+02,   2.000000E+02,   1.500000E+02,   3.403926E+05,   0.000000E+00
  2.000000E+02,   3.000000E+02,   2.500000E+02,   3.403235E+05,   0.000000E+00
  3.000000E+02,   4.000000E+02,   3.500000E+02,   3.401945E+05,   0.000000E+00
  4.000000E+02,   5.000000E+02,   4.500000E+02,   3.394480E+05,   0.000000E+00
  5.000000E+02,   6.000000E+02,   5.500000E+02,   3.350008E+05,   0.000000E+00
  6.000000E+02,   7.000000E+02,   6.500000E+02,   3.269966E+05,   0.000000E+00
  7.000000E+02,   8.000000E+02,   7.500000E+02,   3.170278E+05,   0.000000E+00
  8.000000E+02,   1.000000E+03,   9.000000E+02,   6.021423E+05,   0.000000E+00
  1.000000E+03,   1.250000E+03,   1.125000E+03,   6.892319E+05,   0.000000E+00
  1.250000E+03,   1.500000E+03,   1.375000E+03,   6.159263E+05,   0.000000E+00
  1.500000E+03,   1.750000E+03,   1.625000E+03,   5.502858E+05,   0.000000E+00
  1.750000E+03,   2.000000E+03,   1.875000E+03,   4.936822E+05,   0.000000E+00
  2.000000E+03,   2.250000E+03,   2.125000E+03,   4.497722E+05,   0.000000E+00
  2.250000E+03,   2.500000E+03,   2.375000E+03,   4.153923E+05,   0.000000E+00
  2.500000E+03,   2.750000E+03,   2.625000E+03,   3.836399E+05,   0.000000E+00
  2.750000E+03,   3.000000E+03,   2.875000E+03,   3.549154E+05,   0.000000E+00
  3.000000E+03,   3.250000E+03,   3.125000E+03,   3.305756E+05,   0.000000E+00
  3.250000E+03,   3.500000E+03,   3.375000E+03,   3.084641E+05,   0.000000E+00
  3.500000E+03,   3.750000E+03,   3.625000E+03,   2.883932E+05,   0.000000E+00
  3.750000E+03,   4.000000E+03,   3.875000E+03,   2.676012E+05,   0.000000E+00
  4.000000E+03,   4.250000E+03,   4.125000E+03,   2.557524E+05,   0.000000E+00
  4.250000E+03,   4.500000E+03,   4.375000E+03,   2.333046E+05,   0.000000E+00
  4.500000E+03,   4.750000E+03,   4.625000E+03,   2.271436E+05,   0.000000E+00
  4.750000E+03,   5.000000E+03,   4.875000E+03,   2.071087E+05,   0.000000E+00
  5.000000E+03,   5.500000E+03,   5.250000E+03,   3.870991E+05,   0.000000E+00
  5.500000E+03,   6.000000E+03,   5.750000E+03,   3.434886E+05,   0.000000E+00
  6.000000E+03,   6.500000E+03,   6.250000E+03,   3.039804E+05,   0.000000E+00
  6.500000E+03,   7.000000E+03,   6.750000E+03,   2.725126E+05,   0.000000E+00
  7.000000E+03,   1.000000E+04,   8.500000E+03,   1.146312E+06,   0.000000E+00
  1.000000E+04,   2.000000E+04,   1.500000E+04,   1.635127E+06,   0.000000E+00
  2.000000E+04,   3.000000E+04,   2.500000E+04,   7.460823E+05,   0.000000E+00
  3.000000E+04,   4.000000E+04,   3.500000E+04,   3.605008E+05,   0.000000E+00
  4.000000E+04,   5.000000E+04,   4.500000E+04,   2.018557E+05,   0.000000E+00
  5.000000E+04,   6.000000E+04,   5.500000E+04,   1.240202E+05,   0.000000E+00
  6.000000E+04,   7.000000E+04,   6.500000E+04,   8.459997E+04,   0.000000E+00
  7.000000E+04,   8.000000E+04,   7.500000E+04,   5.817220E+04,   0.000000E+00
  8.000000E+04,   1.000000E+05,   9.000000E+04,   7.070094E+04,   0.000000E+00
  1.000000E+05,   1.500000E+05,   1.250000E+05,   7.960049E+04,   0.000000E+00
  1.500000E+05,   2.000000E+05,   1.750000E+05,   3.065653E+04,   0.000000E+00
  2.000000E+05,   3.000000E+05,   2.500000E+05,   1.625350E+04,   0.000000E+00
  3.000000E+05,   4.000000E+05,   3.500000E+05,   2.351948E+03,   0.000000E+00
  4.000000E+05,   5.000000E+05,   4.500000E+05,   5.254144E+02,   0.000000E+00
  5.000000E+05,   8.000000E+05,   6.500000E+05,   4.770699E+01,   0.000000E+00
  8.000000E+05,   1.000000E+06,   0.000000E+00,   0.000000E+00,   0.000000E+00
'End of File'
