'*',    13,     3,     4,     0,     5,     5,    46,     2
'OMNIDIRECTIONAL FLUENCE ANALYSIS'
'MULASSIS ml-v01-19'
'geant4-09-02-ref-00 (19-December-2008)'
'FLU_BDY', 1, 2, ' '
'FLU_PAR, -1, proton  '
'FLU_AMN', 1, 0., 'deg'
'FLU_AMX', 1, 90., 'deg'
'Elo','keV', 1, ' Lower edge of energy    bin '
'Eup','keV', 1, ' Upper edge of energy    bin '
'Emean','keV', 1, ' Mean energy of bin '
'Value','particles/cm2/bin',1,             'Fluence/flux'
'Error','particles/cm2/bin',1,'Error in   fluence/flux'
  0.000000E+00,   4.000000E+01,   2.000000E+01,   5.837582E+04,   0.000000E+00
  4.000000E+01,   1.000000E+02,   7.000000E+01,   8.756373E+04,   0.000000E+00
  1.000000E+02,   2.000000E+02,   1.500000E+02,   1.459395E+05,   0.000000E+00
  2.000000E+02,   3.000000E+02,   2.500000E+02,   1.576064E+05,   0.000000E+00
  3.000000E+02,   4.000000E+02,   3.500000E+02,   1.803153E+05,   0.000000E+00
  4.000000E+02,   5.000000E+02,   4.500000E+02,   1.984248E+05,   0.000000E+00
  5.000000E+02,   6.000000E+02,   5.500000E+02,   2.292950E+05,   0.000000E+00
  6.000000E+02,   7.000000E+02,   6.500000E+02,   2.391072E+05,   0.000000E+00
  7.000000E+02,   8.000000E+02,   7.500000E+02,   2.781556E+05,   0.000000E+00
  8.000000E+02,   1.000000E+03,   9.000000E+02,   6.009297E+05,   0.000000E+00
  1.000000E+03,   1.250000E+03,   1.125000E+03,   8.979129E+05,   0.000000E+00
  1.250000E+03,   1.500000E+03,   1.375000E+03,   1.047231E+06,   0.000000E+00
  1.500000E+03,   1.750000E+03,   1.625000E+03,   1.196958E+06,   0.000000E+00
  1.750000E+03,   2.000000E+03,   1.875000E+03,   1.379619E+06,   0.000000E+00
  2.000000E+03,   2.250000E+03,   2.125000E+03,   1.576888E+06,   0.000000E+00
  2.250000E+03,   2.500000E+03,   2.375000E+03,   1.773732E+06,   0.000000E+00
  2.500000E+03,   2.750000E+03,   2.625000E+03,   2.016605E+06,   0.000000E+00
  2.750000E+03,   3.000000E+03,   2.875000E+03,   2.300072E+06,   0.000000E+00
  3.000000E+03,   3.250000E+03,   3.125000E+03,   2.632449E+06,   0.000000E+00
  3.250000E+03,   3.500000E+03,   3.375000E+03,   2.991094E+06,   0.000000E+00
  3.500000E+03,   3.750000E+03,   3.625000E+03,   3.149689E+06,   0.000000E+00
  3.750000E+03,   4.000000E+03,   3.875000E+03,   2.614514E+06,   0.000000E+00
  4.000000E+03,   4.250000E+03,   4.125000E+03,   2.061498E+06,   0.000000E+00
  4.250000E+03,   4.500000E+03,   4.375000E+03,   2.266488E+06,   0.000000E+00
  4.500000E+03,   4.750000E+03,   4.625000E+03,   2.471540E+06,   0.000000E+00
  4.750000E+03,   5.000000E+03,   4.875000E+03,   2.837346E+06,   0.000000E+00
  5.000000E+03,   5.500000E+03,   5.250000E+03,   4.747232E+06,   0.000000E+00
  5.500000E+03,   6.000000E+03,   5.750000E+03,   3.111930E+06,   0.000000E+00
  6.000000E+03,   6.500000E+03,   6.250000E+03,   3.748514E+06,   0.000000E+00
  6.500000E+03,   7.000000E+03,   6.750000E+03,   3.660205E+06,   0.000000E+00
  7.000000E+03,   1.000000E+04,   8.500000E+03,   2.082920E+07,   0.000000E+00
  1.000000E+04,   2.000000E+04,   1.500000E+04,   7.846457E+07,   0.000000E+00
  2.000000E+04,   3.000000E+04,   2.500000E+04,   1.019578E+08,   0.000000E+00
  3.000000E+04,   4.000000E+04,   3.500000E+04,   1.029719E+08,   0.000000E+00
  4.000000E+04,   5.000000E+04,   4.500000E+04,   1.209809E+08,   0.000000E+00
  5.000000E+04,   6.000000E+04,   5.500000E+04,   1.223389E+08,   0.000000E+00
  6.000000E+04,   7.000000E+04,   6.500000E+04,   1.614792E+08,   0.000000E+00
  7.000000E+04,   8.000000E+04,   7.500000E+04,   1.165634E+08,   0.000000E+00
  8.000000E+04,   1.000000E+05,   9.000000E+04,   2.129294E+08,   0.000000E+00
  1.000000E+05,   1.500000E+05,   1.250000E+05,   3.490719E+08,   0.000000E+00
  1.500000E+05,   2.000000E+05,   1.750000E+05,   1.561299E+08,   0.000000E+00
  2.000000E+05,   3.000000E+05,   2.500000E+05,   1.293706E+08,   0.000000E+00
  3.000000E+05,   4.000000E+05,   3.500000E+05,   1.254729E+07,   0.000000E+00
  4.000000E+05,   5.000000E+05,   4.500000E+05,   8.458705E+04,   0.000000E+00
  5.000000E+05,   8.000000E+05,   6.500000E+05,   3.999819E+04,   0.000000E+00
  8.000000E+05,   1.000000E+06,   0.000000E+00,   0.000000E+00,   0.000000E+00
'End of Block'
'*',    13,     3,     4,     0,     5,     5,    46,     1
'OMNIDIRECTIONAL FLUENCE ANALYSIS'
'MULASSIS ml-v01-19'
'geant4-09-02-ref-00 (19-December-2008)'
'FLU_BDY', 1, 2, ' '
'FLU_PAR, -1, e-      '
'FLU_AMN', 1, 0., 'deg'
'FLU_AMX', 1, 90., 'deg'
'Elo','keV', 1, ' Lower edge of energy    bin '
'Eup','keV', 1, ' Upper edge of energy    bin '
'Emean','keV', 1, ' Mean energy of bin '
'Value','particles/cm2/bin',1,             'Fluence/flux'
'Error','particles/cm2/bin',1,'Error in   fluence/flux'
  0.000000E+00,   4.000000E+01,   2.000000E+01,   7.530466E+09,   0.000000E+00
  4.000000E+01,   1.000000E+02,   7.000000E+01,   1.263354E+10,   0.000000E+00
  1.000000E+02,   2.000000E+02,   1.500000E+02,   2.518287E+10,   0.000000E+00
  2.000000E+02,   3.000000E+02,   2.500000E+02,   2.481367E+10,   0.000000E+00
  3.000000E+02,   4.000000E+02,   3.500000E+02,   1.981173E+10,   0.000000E+00
  4.000000E+02,   5.000000E+02,   4.500000E+02,   1.784646E+10,   0.000000E+00
  5.000000E+02,   6.000000E+02,   5.500000E+02,   1.512258E+10,   0.000000E+00
  6.000000E+02,   7.000000E+02,   6.500000E+02,   1.312026E+10,   0.000000E+00
  7.000000E+02,   8.000000E+02,   7.500000E+02,   1.059595E+10,   0.000000E+00
  8.000000E+02,   1.000000E+03,   9.000000E+02,   1.505754E+10,   0.000000E+00
  1.000000E+03,   1.250000E+03,   1.125000E+03,   1.251019E+10,   0.000000E+00
  1.250000E+03,   1.500000E+03,   1.375000E+03,   9.142565E+09,   0.000000E+00
  1.500000E+03,   1.750000E+03,   1.625000E+03,   6.641276E+09,   0.000000E+00
  1.750000E+03,   2.000000E+03,   1.875000E+03,   4.696468E+09,   0.000000E+00
  2.000000E+03,   2.250000E+03,   2.125000E+03,   3.483091E+09,   0.000000E+00
  2.250000E+03,   2.500000E+03,   2.375000E+03,   2.607196E+09,   0.000000E+00
  2.500000E+03,   2.750000E+03,   2.625000E+03,   1.741400E+09,   0.000000E+00
  2.750000E+03,   3.000000E+03,   2.875000E+03,   1.044887E+09,   0.000000E+00
  3.000000E+03,   3.250000E+03,   3.125000E+03,   5.662648E+08,   0.000000E+00
  3.250000E+03,   3.500000E+03,   3.375000E+03,   3.479729E+08,   0.000000E+00
  3.500000E+03,   3.750000E+03,   3.625000E+03,   1.936310E+08,   0.000000E+00
  3.750000E+03,   4.000000E+03,   3.875000E+03,   1.169151E+08,   0.000000E+00
  4.000000E+03,   4.250000E+03,   4.125000E+03,   6.093944E+07,   0.000000E+00
  4.250000E+03,   4.500000E+03,   4.375000E+03,   3.192487E+07,   0.000000E+00
  4.500000E+03,   4.750000E+03,   4.625000E+03,   1.691652E+07,   0.000000E+00
  4.750000E+03,   5.000000E+03,   4.875000E+03,   9.113997E+06,   0.000000E+00
  5.000000E+03,   5.500000E+03,   5.250000E+03,   5.692480E+06,   0.000000E+00
  5.500000E+03,   6.000000E+03,   5.750000E+03,   8.630945E+05,   0.000000E+00
  6.000000E+03,   6.500000E+03,   6.250000E+03,   1.012482E+03,   0.000000E+00
  6.500000E+03,   7.000000E+03,   6.750000E+03,   1.012482E+03,   0.000000E+00
  7.000000E+03,   1.000000E+04,   8.500000E+03,   5.830751E+03,   0.000000E+00
  1.000000E+04,   2.000000E+04,   1.500000E+04,   1.342618E+04,   0.000000E+00
  2.000000E+04,   3.000000E+04,   2.500000E+04,   7.998133E+03,   0.000000E+00
  3.000000E+04,   4.000000E+04,   3.500000E+04,   5.307925E+03,   0.000000E+00
  4.000000E+04,   5.000000E+04,   4.500000E+04,   3.883677E+03,   0.000000E+00
  5.000000E+04,   6.000000E+04,   5.500000E+04,   2.996052E+03,   0.000000E+00
  6.000000E+04,   7.000000E+04,   6.500000E+04,   2.376752E+03,   0.000000E+00
  7.000000E+04,   8.000000E+04,   7.500000E+04,   1.820705E+03,   0.000000E+00
  8.000000E+04,   1.000000E+05,   9.000000E+04,   2.622504E+03,   0.000000E+00
  1.000000E+05,   1.500000E+05,   1.250000E+05,   3.166636E+03,   0.000000E+00
  1.500000E+05,   2.000000E+05,   1.750000E+05,   1.003159E+03,   0.000000E+00
  2.000000E+05,   3.000000E+05,   2.500000E+05,   3.548277E+02,   0.000000E+00
  3.000000E+05,   4.000000E+05,   3.500000E+05,   5.737901E-03,   0.000000E+00
  4.000000E+05,   5.000000E+05,   4.500000E+05,   2.824944E-01,   0.000000E+00
  5.000000E+05,   8.000000E+05,   6.500000E+05,   3.859079E-02,   0.000000E+00
  8.000000E+05,   1.000000E+06,   0.000000E+00,   0.000000E+00,   0.000000E+00
'End of Block'
'*',    13,     3,     4,     0,     5,     5,    46,    -1
'OMNIDIRECTIONAL FLUENCE ANALYSIS'
'MULASSIS ml-v01-19'
'geant4-09-02-ref-00 (19-December-2008)'
'FLU_BDY', 1, 2, ' '
'FLU_PAR, -1, neutron '
'FLU_AMN', 1, 0., 'deg'
'FLU_AMX', 1, 90., 'deg'
'Elo','keV', 1, ' Lower edge of energy    bin '
'Eup','keV', 1, ' Upper edge of energy    bin '
'Emean','keV', 1, ' Mean energy of bin '
'Value','particles/cm2/bin',1,             'Fluence/flux'
'Error','particles/cm2/bin',1,'Error in   fluence/flux'
  0.000000E+00,   4.000000E+01,   2.000000E+01,   1.923312E+04,   0.000000E+00
  4.000000E+01,   1.000000E+02,   7.000000E+01,   2.884968E+04,   0.000000E+00
  1.000000E+02,   2.000000E+02,   1.500000E+02,   4.808280E+04,   0.000000E+00
  2.000000E+02,   3.000000E+02,   2.500000E+02,   4.808068E+04,   0.000000E+00
  3.000000E+02,   4.000000E+02,   3.500000E+02,   4.807656E+04,   0.000000E+00
  4.000000E+02,   5.000000E+02,   4.500000E+02,   4.805828E+04,   0.000000E+00
  5.000000E+02,   6.000000E+02,   5.500000E+02,   4.794423E+04,   0.000000E+00
  6.000000E+02,   7.000000E+02,   6.500000E+02,   4.772051E+04,   0.000000E+00
  7.000000E+02,   8.000000E+02,   7.500000E+02,   4.741190E+04,   0.000000E+00
  8.000000E+02,   1.000000E+03,   9.000000E+02,   9.384139E+04,   0.000000E+00
  1.000000E+03,   1.250000E+03,   1.125000E+03,   1.151286E+05,   0.000000E+00
  1.250000E+03,   1.500000E+03,   1.375000E+03,   1.122896E+05,   0.000000E+00
  1.500000E+03,   1.750000E+03,   1.625000E+03,   1.092832E+05,   0.000000E+00
  1.750000E+03,   2.000000E+03,   1.875000E+03,   1.061247E+05,   0.000000E+00
  2.000000E+03,   2.250000E+03,   2.125000E+03,   1.030938E+05,   0.000000E+00
  2.250000E+03,   2.500000E+03,   2.375000E+03,   1.005253E+05,   0.000000E+00
  2.500000E+03,   2.750000E+03,   2.625000E+03,   9.804605E+04,   0.000000E+00
  2.750000E+03,   3.000000E+03,   2.875000E+03,   9.562241E+04,   0.000000E+00
  3.000000E+03,   3.250000E+03,   3.125000E+03,   9.346818E+04,   0.000000E+00
  3.250000E+03,   3.500000E+03,   3.375000E+03,   9.060668E+04,   0.000000E+00
  3.500000E+03,   3.750000E+03,   3.625000E+03,   8.827168E+04,   0.000000E+00
  3.750000E+03,   4.000000E+03,   3.875000E+03,   8.604499E+04,   0.000000E+00
  4.000000E+03,   4.250000E+03,   4.125000E+03,   8.322785E+04,   0.000000E+00
  4.250000E+03,   4.500000E+03,   4.375000E+03,   8.054039E+04,   0.000000E+00
  4.500000E+03,   4.750000E+03,   4.625000E+03,   7.856023E+04,   0.000000E+00
  4.750000E+03,   5.000000E+03,   4.875000E+03,   7.548445E+04,   0.000000E+00
  5.000000E+03,   5.500000E+03,   5.250000E+03,   1.446491E+05,   0.000000E+00
  5.500000E+03,   6.000000E+03,   5.750000E+03,   1.360100E+05,   0.000000E+00
  6.000000E+03,   6.500000E+03,   6.250000E+03,   1.272646E+05,   0.000000E+00
  6.500000E+03,   7.000000E+03,   6.750000E+03,   1.164908E+05,   0.000000E+00
  7.000000E+03,   1.000000E+04,   8.500000E+03,   5.587381E+05,   0.000000E+00
  1.000000E+04,   2.000000E+04,   1.500000E+04,   1.019697E+06,   0.000000E+00
  2.000000E+04,   3.000000E+04,   2.500000E+04,   5.611398E+05,   0.000000E+00
  3.000000E+04,   4.000000E+04,   3.500000E+04,   3.570755E+05,   0.000000E+00
  4.000000E+04,   5.000000E+04,   4.500000E+04,   2.581860E+05,   0.000000E+00
  5.000000E+04,   6.000000E+04,   5.500000E+04,   1.940398E+05,   0.000000E+00
  6.000000E+04,   7.000000E+04,   6.500000E+04,   1.551969E+05,   0.000000E+00
  7.000000E+04,   8.000000E+04,   7.500000E+04,   1.263552E+05,   0.000000E+00
  8.000000E+04,   1.000000E+05,   9.000000E+04,   1.812200E+05,   0.000000E+00
  1.000000E+05,   1.500000E+05,   1.250000E+05,   2.393832E+05,   0.000000E+00
  1.500000E+05,   2.000000E+05,   1.750000E+05,   9.475369E+04,   0.000000E+00
  2.000000E+05,   3.000000E+05,   2.500000E+05,   3.560421E+04,   0.000000E+00
  3.000000E+05,   4.000000E+05,   0.000000E+00,  -5.919454E+02,   0.000000E+00
  4.000000E+05,   5.000000E+05,   4.500000E+05,   2.115200E+01,   0.000000E+00
  5.000000E+05,   8.000000E+05,   6.500000E+05,   2.047886E+00,   0.000000E+00
  8.000000E+05,   1.000000E+06,   0.000000E+00,   0.000000E+00,   0.000000E+00
'End of File'
