'*',    13,     3,     4,     0,     5,     5,    46,     2
'OMNIDIRECTIONAL FLUENCE ANALYSIS'
'MULASSIS ml-v01-19'
'geant4-09-02-ref-00 (19-December-2008)'
'FLU_BDY', 1, 2, ' '
'FLU_PAR, -1, proton  '
'FLU_AMN', 1, 0., 'deg'
'FLU_AMX', 1, 90., 'deg'
'Elo','keV', 1, ' Lower edge of energy    bin '
'Eup','keV', 1, ' Upper edge of energy    bin '
'Emean','keV', 1, ' Mean energy of bin '
'Value','particles/cm2/bin',1,             'Fluence/flux'
'Error','particles/cm2/bin',1,'Error in   fluence/flux'
  0.000000E+00,   4.000000E+01,   2.000000E+01,   5.782902E+05,   0.000000E+00
  4.000000E+01,   1.000000E+02,   7.000000E+01,   8.674354E+05,   0.000000E+00
  1.000000E+02,   2.000000E+02,   1.500000E+02,   1.445726E+06,   0.000000E+00
  2.000000E+02,   3.000000E+02,   2.500000E+02,   1.559509E+06,   0.000000E+00
  3.000000E+02,   4.000000E+02,   3.500000E+02,   1.775524E+06,   0.000000E+00
  4.000000E+02,   5.000000E+02,   4.500000E+02,   1.964630E+06,   0.000000E+00
  5.000000E+02,   6.000000E+02,   5.500000E+02,   2.281177E+06,   0.000000E+00
  6.000000E+02,   7.000000E+02,   6.500000E+02,   2.381150E+06,   0.000000E+00
  7.000000E+02,   8.000000E+02,   7.500000E+02,   2.755303E+06,   0.000000E+00
  8.000000E+02,   1.000000E+03,   9.000000E+02,   5.993190E+06,   0.000000E+00
  1.000000E+03,   1.250000E+03,   1.125000E+03,   8.955916E+06,   0.000000E+00
  1.250000E+03,   1.500000E+03,   1.375000E+03,   1.046748E+07,   0.000000E+00
  1.500000E+03,   1.750000E+03,   1.625000E+03,   1.195042E+07,   0.000000E+00
  1.750000E+03,   2.000000E+03,   1.875000E+03,   1.379228E+07,   0.000000E+00
  2.000000E+03,   2.250000E+03,   2.125000E+03,   1.573576E+07,   0.000000E+00
  2.250000E+03,   2.500000E+03,   2.375000E+03,   1.768802E+07,   0.000000E+00
  2.500000E+03,   2.750000E+03,   2.625000E+03,   2.012098E+07,   0.000000E+00
  2.750000E+03,   3.000000E+03,   2.875000E+03,   2.289503E+07,   0.000000E+00
  3.000000E+03,   3.250000E+03,   3.125000E+03,   2.620797E+07,   0.000000E+00
  3.250000E+03,   3.500000E+03,   3.375000E+03,   2.973407E+07,   0.000000E+00
  3.500000E+03,   3.750000E+03,   3.625000E+03,   3.134914E+07,   0.000000E+00
  3.750000E+03,   4.000000E+03,   3.875000E+03,   2.616208E+07,   0.000000E+00
  4.000000E+03,   4.250000E+03,   4.125000E+03,   2.079117E+07,   0.000000E+00
  4.250000E+03,   4.500000E+03,   4.375000E+03,   2.289781E+07,   0.000000E+00
  4.500000E+03,   4.750000E+03,   4.625000E+03,   2.488109E+07,   0.000000E+00
  4.750000E+03,   5.000000E+03,   4.875000E+03,   2.858181E+07,   0.000000E+00
  5.000000E+03,   5.500000E+03,   5.250000E+03,   4.906752E+07,   0.000000E+00
  5.500000E+03,   6.000000E+03,   5.750000E+03,   3.489426E+07,   0.000000E+00
  6.000000E+03,   6.500000E+03,   6.250000E+03,   4.242497E+07,   0.000000E+00
  6.500000E+03,   7.000000E+03,   6.750000E+03,   4.095271E+07,   0.000000E+00
  7.000000E+03,   1.000000E+04,   8.500000E+03,   2.204092E+08,   0.000000E+00
  1.000000E+04,   2.000000E+04,   1.500000E+04,   7.696239E+08,   0.000000E+00
  2.000000E+04,   3.000000E+04,   2.500000E+04,   8.114938E+08,   0.000000E+00
  3.000000E+04,   4.000000E+04,   3.500000E+04,   7.061395E+08,   0.000000E+00
  4.000000E+04,   5.000000E+04,   4.500000E+04,   7.436158E+08,   0.000000E+00
  5.000000E+04,   6.000000E+04,   5.500000E+04,   6.684500E+08,   0.000000E+00
  6.000000E+04,   7.000000E+04,   6.500000E+04,   8.374028E+08,   0.000000E+00
  7.000000E+04,   8.000000E+04,   7.500000E+04,   5.971943E+08,   0.000000E+00
  8.000000E+04,   1.000000E+05,   9.000000E+04,   1.089087E+09,   0.000000E+00
  1.000000E+05,   1.500000E+05,   1.250000E+05,   1.751369E+09,   0.000000E+00
  1.500000E+05,   2.000000E+05,   1.750000E+05,   8.805345E+08,   0.000000E+00
  2.000000E+05,   3.000000E+05,   2.500000E+05,   8.264931E+08,   0.000000E+00
  3.000000E+05,   4.000000E+05,   3.500000E+05,   1.987401E+08,   0.000000E+00
  4.000000E+05,   5.000000E+05,   4.500000E+05,   5.784428E+05,   0.000000E+00
  5.000000E+05,   8.000000E+05,   6.500000E+05,   2.342213E+05,   0.000000E+00
  8.000000E+05,   1.000000E+06,   0.000000E+00,   0.000000E+00,   0.000000E+00
'End of Block'
'*',    13,     3,     4,     0,     5,     5,    46,     1
'OMNIDIRECTIONAL FLUENCE ANALYSIS'
'MULASSIS ml-v01-19'
'geant4-09-02-ref-00 (19-December-2008)'
'FLU_BDY', 1, 2, ' '
'FLU_PAR, -1, e-      '
'FLU_AMN', 1, 0., 'deg'
'FLU_AMX', 1, 90., 'deg'
'Elo','keV', 1, ' Lower edge of energy    bin '
'Eup','keV', 1, ' Upper edge of energy    bin '
'Emean','keV', 1, ' Mean energy of bin '
'Value','particles/cm2/bin',1,             'Fluence/flux'
'Error','particles/cm2/bin',1,'Error in   fluence/flux'
  0.000000E+00,   4.000000E+01,   2.000000E+01,   3.070738E+10,   0.000000E+00
  4.000000E+01,   1.000000E+02,   7.000000E+01,   5.099957E+10,   0.000000E+00
  1.000000E+02,   2.000000E+02,   1.500000E+02,   1.025329E+11,   0.000000E+00
  2.000000E+02,   3.000000E+02,   2.500000E+02,   1.009428E+11,   0.000000E+00
  3.000000E+02,   4.000000E+02,   3.500000E+02,   8.019241E+10,   0.000000E+00
  4.000000E+02,   5.000000E+02,   4.500000E+02,   7.205471E+10,   0.000000E+00
  5.000000E+02,   6.000000E+02,   5.500000E+02,   6.034980E+10,   0.000000E+00
  6.000000E+02,   7.000000E+02,   6.500000E+02,   5.173486E+10,   0.000000E+00
  7.000000E+02,   8.000000E+02,   7.500000E+02,   4.156696E+10,   0.000000E+00
  8.000000E+02,   1.000000E+03,   9.000000E+02,   5.902437E+10,   0.000000E+00
  1.000000E+03,   1.250000E+03,   1.125000E+03,   4.698952E+10,   0.000000E+00
  1.250000E+03,   1.500000E+03,   1.375000E+03,   3.242094E+10,   0.000000E+00
  1.500000E+03,   1.750000E+03,   1.625000E+03,   2.276964E+10,   0.000000E+00
  1.750000E+03,   2.000000E+03,   1.875000E+03,   1.569704E+10,   0.000000E+00
  2.000000E+03,   2.250000E+03,   2.125000E+03,   1.137162E+10,   0.000000E+00
  2.250000E+03,   2.500000E+03,   2.375000E+03,   8.360362E+09,   0.000000E+00
  2.500000E+03,   2.750000E+03,   2.625000E+03,   5.452235E+09,   0.000000E+00
  2.750000E+03,   3.000000E+03,   2.875000E+03,   3.209810E+09,   0.000000E+00
  3.000000E+03,   3.250000E+03,   3.125000E+03,   1.686364E+09,   0.000000E+00
  3.250000E+03,   3.500000E+03,   3.375000E+03,   1.008514E+09,   0.000000E+00
  3.500000E+03,   3.750000E+03,   3.625000E+03,   5.424190E+08,   0.000000E+00
  3.750000E+03,   4.000000E+03,   3.875000E+03,   3.156680E+08,   0.000000E+00
  4.000000E+03,   4.250000E+03,   4.125000E+03,   1.593944E+08,   0.000000E+00
  4.250000E+03,   4.500000E+03,   4.375000E+03,   8.130591E+07,   0.000000E+00
  4.500000E+03,   4.750000E+03,   4.625000E+03,   4.077678E+07,   0.000000E+00
  4.750000E+03,   5.000000E+03,   4.875000E+03,   2.094946E+07,   0.000000E+00
  5.000000E+03,   5.500000E+03,   5.250000E+03,   1.270450E+07,   0.000000E+00
  5.500000E+03,   6.000000E+03,   5.750000E+03,   1.738656E+06,   0.000000E+00
  6.000000E+03,   6.500000E+03,   6.250000E+03,   9.011395E+03,   0.000000E+00
  6.500000E+03,   7.000000E+03,   6.750000E+03,   9.011395E+03,   0.000000E+00
  7.000000E+03,   1.000000E+04,   8.500000E+03,   5.171213E+04,   0.000000E+00
  1.000000E+04,   2.000000E+04,   1.500000E+04,   1.081675E+05,   0.000000E+00
  2.000000E+04,   3.000000E+04,   2.500000E+04,   5.273303E+04,   0.000000E+00
  3.000000E+04,   4.000000E+04,   3.500000E+04,   3.094785E+04,   0.000000E+00
  4.000000E+04,   5.000000E+04,   4.500000E+04,   2.110602E+04,   0.000000E+00
  5.000000E+04,   6.000000E+04,   5.500000E+04,   1.574576E+04,   0.000000E+00
  6.000000E+04,   7.000000E+04,   6.500000E+04,   1.238794E+04,   0.000000E+00
  7.000000E+04,   8.000000E+04,   7.500000E+04,   9.513684E+03,   0.000000E+00
  8.000000E+04,   1.000000E+05,   9.000000E+04,   1.379387E+04,   0.000000E+00
  1.000000E+05,   1.500000E+05,   1.250000E+05,   1.756321E+04,   0.000000E+00
  1.500000E+05,   2.000000E+05,   1.750000E+05,   6.248427E+03,   0.000000E+00
  2.000000E+05,   3.000000E+05,   2.500000E+05,   2.774884E+03,   0.000000E+00
  3.000000E+05,   4.000000E+05,   3.500000E+05,   3.328548E+02,   0.000000E+00
  4.000000E+05,   5.000000E+05,   4.500000E+05,   1.748896E+00,   0.000000E+00
  5.000000E+05,   8.000000E+05,   6.500000E+05,   2.259798E-01,   0.000000E+00
  8.000000E+05,   1.000000E+06,   0.000000E+00,   0.000000E+00,   0.000000E+00
'End of Block'
'*',    13,     3,     4,     0,     5,     5,    46,    -1
'OMNIDIRECTIONAL FLUENCE ANALYSIS'
'MULASSIS ml-v01-19'
'geant4-09-02-ref-00 (19-December-2008)'
'FLU_BDY', 1, 2, ' '
'FLU_PAR, -1, neutron '
'FLU_AMN', 1, 0., 'deg'
'FLU_AMX', 1, 90., 'deg'
'Elo','keV', 1, ' Lower edge of energy    bin '
'Eup','keV', 1, ' Upper edge of energy    bin '
'Emean','keV', 1, ' Mean energy of bin '
'Value','particles/cm2/bin',1,             'Fluence/flux'
'Error','particles/cm2/bin',1,'Error in   fluence/flux'
  0.000000E+00,   4.000000E+01,   2.000000E+01,   1.244050E+05,   0.000000E+00
  4.000000E+01,   1.000000E+02,   7.000000E+01,   1.866075E+05,   0.000000E+00
  1.000000E+02,   2.000000E+02,   1.500000E+02,   3.110126E+05,   0.000000E+00
  2.000000E+02,   3.000000E+02,   2.500000E+02,   3.109919E+05,   0.000000E+00
  3.000000E+02,   4.000000E+02,   3.500000E+02,   3.109527E+05,   0.000000E+00
  4.000000E+02,   5.000000E+02,   4.500000E+02,   3.107364E+05,   0.000000E+00
  5.000000E+02,   6.000000E+02,   5.500000E+02,   3.094201E+05,   0.000000E+00
  6.000000E+02,   7.000000E+02,   6.500000E+02,   3.069744E+05,   0.000000E+00
  7.000000E+02,   8.000000E+02,   7.500000E+02,   3.038042E+05,   0.000000E+00
  8.000000E+02,   1.000000E+03,   9.000000E+02,   5.967266E+05,   0.000000E+00
  1.000000E+03,   1.250000E+03,   1.125000E+03,   7.229377E+05,   0.000000E+00
  1.250000E+03,   1.500000E+03,   1.375000E+03,   6.951329E+05,   0.000000E+00
  1.500000E+03,   1.750000E+03,   1.625000E+03,   6.679427E+05,   0.000000E+00
  1.750000E+03,   2.000000E+03,   1.875000E+03,   6.411356E+05,   0.000000E+00
  2.000000E+03,   2.250000E+03,   2.125000E+03,   6.168896E+05,   0.000000E+00
  2.250000E+03,   2.500000E+03,   2.375000E+03,   5.969130E+05,   0.000000E+00
  2.500000E+03,   2.750000E+03,   2.625000E+03,   5.778784E+05,   0.000000E+00
  2.750000E+03,   3.000000E+03,   2.875000E+03,   5.596262E+05,   0.000000E+00
  3.000000E+03,   3.250000E+03,   3.125000E+03,   5.438100E+05,   0.000000E+00
  3.250000E+03,   3.500000E+03,   3.375000E+03,   5.253577E+05,   0.000000E+00
  3.500000E+03,   3.750000E+03,   3.625000E+03,   5.100095E+05,   0.000000E+00
  3.750000E+03,   4.000000E+03,   3.875000E+03,   4.947945E+05,   0.000000E+00
  4.000000E+03,   4.250000E+03,   4.125000E+03,   4.786721E+05,   0.000000E+00
  4.250000E+03,   4.500000E+03,   4.375000E+03,   4.607945E+05,   0.000000E+00
  4.500000E+03,   4.750000E+03,   4.625000E+03,   4.499287E+05,   0.000000E+00
  4.750000E+03,   5.000000E+03,   4.875000E+03,   4.305592E+05,   0.000000E+00
  5.000000E+03,   5.500000E+03,   5.250000E+03,   8.242042E+05,   0.000000E+00
  5.500000E+03,   6.000000E+03,   5.750000E+03,   7.718559E+05,   0.000000E+00
  6.000000E+03,   6.500000E+03,   6.250000E+03,   7.197486E+05,   0.000000E+00
  6.500000E+03,   7.000000E+03,   6.750000E+03,   6.617402E+05,   0.000000E+00
  7.000000E+03,   1.000000E+04,   8.500000E+03,   3.182717E+06,   0.000000E+00
  1.000000E+04,   2.000000E+04,   1.500000E+04,   5.769363E+06,   0.000000E+00
  2.000000E+04,   3.000000E+04,   2.500000E+04,   3.104139E+06,   0.000000E+00
  3.000000E+04,   4.000000E+04,   3.500000E+04,   1.948350E+06,   0.000000E+00
  4.000000E+04,   5.000000E+04,   4.500000E+04,   1.403621E+06,   0.000000E+00
  5.000000E+04,   6.000000E+04,   5.500000E+04,   1.054771E+06,   0.000000E+00
  6.000000E+04,   7.000000E+04,   6.500000E+04,   8.485145E+05,   0.000000E+00
  7.000000E+04,   8.000000E+04,   7.500000E+04,   6.948311E+05,   0.000000E+00
  8.000000E+04,   1.000000E+05,   9.000000E+04,   1.022085E+06,   0.000000E+00
  1.000000E+05,   1.500000E+05,   1.250000E+05,   1.446056E+06,   0.000000E+00
  1.500000E+05,   2.000000E+05,   1.750000E+05,   6.382996E+05,   0.000000E+00
  2.000000E+05,   3.000000E+05,   2.500000E+05,   3.090294E+05,   0.000000E+00
  3.000000E+05,   4.000000E+05,   3.500000E+05,   2.826492E+04,   0.000000E+00
  4.000000E+05,   5.000000E+05,   4.500000E+05,   1.309808E+02,   0.000000E+00
  5.000000E+05,   8.000000E+05,   6.500000E+05,   1.199200E+01,   0.000000E+00
  8.000000E+05,   1.000000E+06,   0.000000E+00,   0.000000E+00,   0.000000E+00
'End of File'
