'*',    13,     3,     4,     0,     5,     5,    46,     2
'OMNIDIRECTIONAL FLUENCE ANALYSIS'
'MULASSIS ml-v01-19'
'geant4-09-02-ref-00 (19-December-2008)'
'FLU_BDY', 1, 2, ' '
'FLU_PAR, -1, proton  '
'FLU_AMN', 1, 0., 'deg'
'FLU_AMX', 1, 90., 'deg'
'Elo','keV', 1, ' Lower edge of energy    bin '
'Eup','keV', 1, ' Upper edge of energy    bin '
'Emean','keV', 1, ' Mean energy of bin '
'Value','particles/cm2/bin',1,             'Fluence/flux'
'Error','particles/cm2/bin',1,'Error in   fluence/flux'
  0.000000E+00,   4.000000E+01,   2.000000E+01,   9.703755E+05,   0.000000E+00
  4.000000E+01,   1.000000E+02,   7.000000E+01,   1.455563E+06,   0.000000E+00
  1.000000E+02,   2.000000E+02,   1.500000E+02,   2.425939E+06,   0.000000E+00
  2.000000E+02,   3.000000E+02,   2.500000E+02,   2.604969E+06,   0.000000E+00
  3.000000E+02,   4.000000E+02,   3.500000E+02,   2.949220E+06,   0.000000E+00
  4.000000E+02,   5.000000E+02,   4.500000E+02,   3.251551E+06,   0.000000E+00
  5.000000E+02,   6.000000E+02,   5.500000E+02,   3.753396E+06,   0.000000E+00
  6.000000E+02,   7.000000E+02,   6.500000E+02,   3.917085E+06,   0.000000E+00
  7.000000E+02,   8.000000E+02,   7.500000E+02,   4.518107E+06,   0.000000E+00
  8.000000E+02,   1.000000E+03,   9.000000E+02,   9.816078E+06,   0.000000E+00
  1.000000E+03,   1.250000E+03,   1.125000E+03,   1.463207E+07,   0.000000E+00
  1.250000E+03,   1.500000E+03,   1.375000E+03,   1.707445E+07,   0.000000E+00
  1.500000E+03,   1.750000E+03,   1.625000E+03,   1.947075E+07,   0.000000E+00
  1.750000E+03,   2.000000E+03,   1.875000E+03,   2.244114E+07,   0.000000E+00
  2.000000E+03,   2.250000E+03,   2.125000E+03,   2.557307E+07,   0.000000E+00
  2.250000E+03,   2.500000E+03,   2.375000E+03,   2.870900E+07,   0.000000E+00
  2.500000E+03,   2.750000E+03,   2.625000E+03,   3.261908E+07,   0.000000E+00
  2.750000E+03,   3.000000E+03,   2.875000E+03,   3.706139E+07,   0.000000E+00
  3.000000E+03,   3.250000E+03,   3.125000E+03,   4.235636E+07,   0.000000E+00
  3.250000E+03,   3.500000E+03,   3.375000E+03,   4.799259E+07,   0.000000E+00
  3.500000E+03,   3.750000E+03,   3.625000E+03,   5.061228E+07,   0.000000E+00
  3.750000E+03,   4.000000E+03,   3.875000E+03,   4.258340E+07,   0.000000E+00
  4.000000E+03,   4.250000E+03,   4.125000E+03,   3.421353E+07,   0.000000E+00
  4.250000E+03,   4.500000E+03,   4.375000E+03,   3.767219E+07,   0.000000E+00
  4.500000E+03,   4.750000E+03,   4.625000E+03,   4.089274E+07,   0.000000E+00
  4.750000E+03,   5.000000E+03,   4.875000E+03,   4.688609E+07,   0.000000E+00
  5.000000E+03,   5.500000E+03,   5.250000E+03,   8.089656E+07,   0.000000E+00
  5.500000E+03,   6.000000E+03,   5.750000E+03,   5.825979E+07,   0.000000E+00
  6.000000E+03,   6.500000E+03,   6.250000E+03,   7.054031E+07,   0.000000E+00
  6.500000E+03,   7.000000E+03,   6.750000E+03,   6.858215E+07,   0.000000E+00
  7.000000E+03,   1.000000E+04,   8.500000E+03,   3.816557E+08,   0.000000E+00
  1.000000E+04,   2.000000E+04,   1.500000E+04,   1.461873E+09,   0.000000E+00
  2.000000E+04,   3.000000E+04,   2.500000E+04,   1.703806E+09,   0.000000E+00
  3.000000E+04,   4.000000E+04,   3.500000E+04,   1.590918E+09,   0.000000E+00
  4.000000E+04,   5.000000E+04,   4.500000E+04,   1.778575E+09,   0.000000E+00
  5.000000E+04,   6.000000E+04,   5.500000E+04,   1.644008E+09,   0.000000E+00
  6.000000E+04,   7.000000E+04,   6.500000E+04,   2.141751E+09,   0.000000E+00
  7.000000E+04,   8.000000E+04,   7.500000E+04,   1.556052E+09,   0.000000E+00
  8.000000E+04,   1.000000E+05,   9.000000E+04,   2.888996E+09,   0.000000E+00
  1.000000E+05,   1.500000E+05,   1.250000E+05,   4.823434E+09,   0.000000E+00
  1.500000E+05,   2.000000E+05,   1.750000E+05,   2.544579E+09,   0.000000E+00
  2.000000E+05,   3.000000E+05,   2.500000E+05,   2.493500E+09,   0.000000E+00
  3.000000E+05,   4.000000E+05,   3.500000E+05,   6.988399E+08,   0.000000E+00
  4.000000E+05,   5.000000E+05,   4.500000E+05,   6.037566E+05,   0.000000E+00
  5.000000E+05,   8.000000E+05,   6.500000E+05,   2.446876E+05,   0.000000E+00
  8.000000E+05,   1.000000E+06,   0.000000E+00,   0.000000E+00,   0.000000E+00
'End of Block'
'*',    13,     3,     4,     0,     5,     5,    46,     1
'OMNIDIRECTIONAL FLUENCE ANALYSIS'
'MULASSIS ml-v01-19'
'geant4-09-02-ref-00 (19-December-2008)'
'FLU_BDY', 1, 2, ' '
'FLU_PAR, -1, e-      '
'FLU_AMN', 1, 0., 'deg'
'FLU_AMX', 1, 90., 'deg'
'Elo','keV', 1, ' Lower edge of energy    bin '
'Eup','keV', 1, ' Upper edge of energy    bin '
'Emean','keV', 1, ' Mean energy of bin '
'Value','particles/cm2/bin',1,             'Fluence/flux'
'Error','particles/cm2/bin',1,'Error in   fluence/flux'
  0.000000E+00,   4.000000E+01,   2.000000E+01,   6.349801E+10,   0.000000E+00
  4.000000E+01,   1.000000E+02,   7.000000E+01,   1.132557E+11,   0.000000E+00
  1.000000E+02,   2.000000E+02,   1.500000E+02,   2.266666E+11,   0.000000E+00
  2.000000E+02,   3.000000E+02,   2.500000E+02,   2.091681E+11,   0.000000E+00
  3.000000E+02,   4.000000E+02,   3.500000E+02,   1.525454E+11,   0.000000E+00
  4.000000E+02,   5.000000E+02,   4.500000E+02,   1.320091E+11,   0.000000E+00
  5.000000E+02,   6.000000E+02,   5.500000E+02,   1.073726E+11,   0.000000E+00
  6.000000E+02,   7.000000E+02,   6.500000E+02,   9.006464E+10,   0.000000E+00
  7.000000E+02,   8.000000E+02,   7.500000E+02,   7.118074E+10,   0.000000E+00
  8.000000E+02,   1.000000E+03,   9.000000E+02,   9.898390E+10,   0.000000E+00
  1.000000E+03,   1.250000E+03,   1.125000E+03,   7.790742E+10,   0.000000E+00
  1.250000E+03,   1.500000E+03,   1.375000E+03,   5.316963E+10,   0.000000E+00
  1.500000E+03,   1.750000E+03,   1.625000E+03,   3.722385E+10,   0.000000E+00
  1.750000E+03,   2.000000E+03,   1.875000E+03,   2.565669E+10,   0.000000E+00
  2.000000E+03,   2.250000E+03,   2.125000E+03,   1.863545E+10,   0.000000E+00
  2.250000E+03,   2.500000E+03,   2.375000E+03,   1.385985E+10,   0.000000E+00
  2.500000E+03,   2.750000E+03,   2.625000E+03,   8.868609E+09,   0.000000E+00
  2.750000E+03,   3.000000E+03,   2.875000E+03,   5.128576E+09,   0.000000E+00
  3.000000E+03,   3.250000E+03,   3.125000E+03,   2.644731E+09,   0.000000E+00
  3.250000E+03,   3.500000E+03,   3.375000E+03,   1.568415E+09,   0.000000E+00
  3.500000E+03,   3.750000E+03,   3.625000E+03,   8.368080E+08,   0.000000E+00
  3.750000E+03,   4.000000E+03,   3.875000E+03,   4.832870E+08,   0.000000E+00
  4.000000E+03,   4.250000E+03,   4.125000E+03,   2.426414E+08,   0.000000E+00
  4.250000E+03,   4.500000E+03,   4.375000E+03,   1.236345E+08,   0.000000E+00
  4.500000E+03,   4.750000E+03,   4.625000E+03,   6.045150E+07,   0.000000E+00
  4.750000E+03,   5.000000E+03,   4.875000E+03,   3.012319E+07,   0.000000E+00
  5.000000E+03,   5.500000E+03,   5.250000E+03,   1.874588E+07,   0.000000E+00
  5.500000E+03,   6.000000E+03,   5.750000E+03,   2.636756E+06,   0.000000E+00
  6.000000E+03,   6.500000E+03,   6.250000E+03,   1.717613E+04,   0.000000E+00
  6.500000E+03,   7.000000E+03,   6.750000E+03,   1.717613E+04,   0.000000E+00
  7.000000E+03,   1.000000E+04,   8.500000E+03,   9.932957E+04,   0.000000E+00
  1.000000E+04,   2.000000E+04,   1.500000E+04,   2.245047E+05,   0.000000E+00
  2.000000E+04,   3.000000E+04,   2.500000E+04,   1.220966E+05,   0.000000E+00
  3.000000E+04,   4.000000E+04,   3.500000E+04,   7.674847E+04,   0.000000E+00
  4.000000E+04,   5.000000E+04,   4.500000E+04,   5.457537E+04,   0.000000E+00
  5.000000E+04,   6.000000E+04,   5.500000E+04,   4.173936E+04,   0.000000E+00
  6.000000E+04,   7.000000E+04,   6.500000E+04,   3.344270E+04,   0.000000E+00
  7.000000E+04,   8.000000E+04,   7.500000E+04,   2.606871E+04,   0.000000E+00
  8.000000E+04,   1.000000E+05,   9.000000E+04,   3.844246E+04,   0.000000E+00
  1.000000E+05,   1.500000E+05,   1.250000E+05,   5.037883E+04,   0.000000E+00
  1.500000E+05,   2.000000E+05,   1.750000E+05,   1.866481E+04,   0.000000E+00
  2.000000E+05,   3.000000E+05,   2.500000E+05,   8.799367E+03,   0.000000E+00
  3.000000E+05,   4.000000E+05,   3.500000E+05,   1.262552E+03,   0.000000E+00
  4.000000E+05,   5.000000E+05,   4.500000E+05,   1.826267E+00,   0.000000E+00
  5.000000E+05,   8.000000E+05,   6.500000E+05,   2.360779E-01,   0.000000E+00
  8.000000E+05,   1.000000E+06,   0.000000E+00,   0.000000E+00,   0.000000E+00
'End of Block'
'*',    13,     3,     4,     0,     5,     5,    46,    -1
'OMNIDIRECTIONAL FLUENCE ANALYSIS'
'MULASSIS ml-v01-19'
'geant4-09-02-ref-00 (19-December-2008)'
'FLU_BDY', 1, 2, ' '
'FLU_PAR, -1, neutron '
'FLU_AMN', 1, 0., 'deg'
'FLU_AMX', 1, 90., 'deg'
'Elo','keV', 1, ' Lower edge of energy    bin '
'Eup','keV', 1, ' Upper edge of energy    bin '
'Emean','keV', 1, ' Mean energy of bin '
'Value','particles/cm2/bin',1,             'Fluence/flux'
'Error','particles/cm2/bin',1,'Error in   fluence/flux'
  0.000000E+00,   4.000000E+01,   2.000000E+01,   2.952244E+05,   0.000000E+00
  4.000000E+01,   1.000000E+02,   7.000000E+01,   4.428366E+05,   0.000000E+00
  1.000000E+02,   2.000000E+02,   1.500000E+02,   7.380609E+05,   0.000000E+00
  2.000000E+02,   3.000000E+02,   2.500000E+02,   7.380285E+05,   0.000000E+00
  3.000000E+02,   4.000000E+02,   3.500000E+02,   7.379660E+05,   0.000000E+00
  4.000000E+02,   5.000000E+02,   4.500000E+02,   7.376208E+05,   0.000000E+00
  5.000000E+02,   6.000000E+02,   5.500000E+02,   7.354777E+05,   0.000000E+00
  6.000000E+02,   7.000000E+02,   6.500000E+02,   7.314008E+05,   0.000000E+00
  7.000000E+02,   8.000000E+02,   7.500000E+02,   7.259670E+05,   0.000000E+00
  8.000000E+02,   1.000000E+03,   9.000000E+02,   1.432509E+06,   0.000000E+00
  1.000000E+03,   1.250000E+03,   1.125000E+03,   1.748228E+06,   0.000000E+00
  1.250000E+03,   1.500000E+03,   1.375000E+03,   1.695619E+06,   0.000000E+00
  1.500000E+03,   1.750000E+03,   1.625000E+03,   1.641995E+06,   0.000000E+00
  1.750000E+03,   2.000000E+03,   1.875000E+03,   1.587266E+06,   0.000000E+00
  2.000000E+03,   2.250000E+03,   2.125000E+03,   1.537124E+06,   0.000000E+00
  2.250000E+03,   2.500000E+03,   2.375000E+03,   1.495032E+06,   0.000000E+00
  2.500000E+03,   2.750000E+03,   2.625000E+03,   1.454382E+06,   0.000000E+00
  2.750000E+03,   3.000000E+03,   2.875000E+03,   1.414610E+06,   0.000000E+00
  3.000000E+03,   3.250000E+03,   3.125000E+03,   1.379904E+06,   0.000000E+00
  3.250000E+03,   3.500000E+03,   3.375000E+03,   1.338117E+06,   0.000000E+00
  3.500000E+03,   3.750000E+03,   3.625000E+03,   1.303533E+06,   0.000000E+00
  3.750000E+03,   4.000000E+03,   3.875000E+03,   1.270038E+06,   0.000000E+00
  4.000000E+03,   4.250000E+03,   4.125000E+03,   1.231067E+06,   0.000000E+00
  4.250000E+03,   4.500000E+03,   4.375000E+03,   1.190758E+06,   0.000000E+00
  4.500000E+03,   4.750000E+03,   4.625000E+03,   1.163758E+06,   0.000000E+00
  4.750000E+03,   5.000000E+03,   4.875000E+03,   1.118485E+06,   0.000000E+00
  5.000000E+03,   5.500000E+03,   5.250000E+03,   2.146744E+06,   0.000000E+00
  5.500000E+03,   6.000000E+03,   5.750000E+03,   2.020021E+06,   0.000000E+00
  6.000000E+03,   6.500000E+03,   6.250000E+03,   1.892045E+06,   0.000000E+00
  6.500000E+03,   7.000000E+03,   6.750000E+03,   1.745750E+06,   0.000000E+00
  7.000000E+03,   1.000000E+04,   8.500000E+03,   8.489680E+06,   0.000000E+00
  1.000000E+04,   2.000000E+04,   1.500000E+04,   1.560909E+07,   0.000000E+00
  2.000000E+04,   3.000000E+04,   2.500000E+04,   8.402941E+06,   0.000000E+00
  3.000000E+04,   4.000000E+04,   3.500000E+04,   5.331588E+06,   0.000000E+00
  4.000000E+04,   5.000000E+04,   4.500000E+04,   3.884123E+06,   0.000000E+00
  5.000000E+04,   6.000000E+04,   5.500000E+04,   2.945520E+06,   0.000000E+00
  6.000000E+04,   7.000000E+04,   6.500000E+04,   2.389881E+06,   0.000000E+00
  7.000000E+04,   8.000000E+04,   7.500000E+04,   1.974569E+06,   0.000000E+00
  8.000000E+04,   1.000000E+05,   9.000000E+04,   2.945449E+06,   0.000000E+00
  1.000000E+05,   1.500000E+05,   1.250000E+05,   4.274372E+06,   0.000000E+00
  1.500000E+05,   2.000000E+05,   1.750000E+05,   1.952831E+06,   0.000000E+00
  2.000000E+05,   3.000000E+05,   2.500000E+05,   1.001924E+06,   0.000000E+00
  3.000000E+05,   4.000000E+05,   3.500000E+05,   1.099641E+05,   0.000000E+00
  4.000000E+05,   5.000000E+05,   4.500000E+05,   1.367669E+02,   0.000000E+00
  5.000000E+05,   8.000000E+05,   6.500000E+05,   1.252787E+01,   0.000000E+00
  8.000000E+05,   1.000000E+06,   0.000000E+00,   0.000000E+00,   0.000000E+00
'End of File'
