'*',    13,     3,     4,     0,     5,     5,    46,     2
'OMNIDIRECTIONAL FLUENCE ANALYSIS'
'MULASSIS ml-v01-19'
'geant4-09-02-ref-00 (19-December-2008)'
'FLU_BDY', 1, 2, ' '
'FLU_PAR, -1, proton  '
'FLU_AMN', 1, 0., 'deg'
'FLU_AMX', 1, 90., 'deg'
'Elo','keV', 1, ' Lower edge of energy    bin '
'Eup','keV', 1, ' Upper edge of energy    bin '
'Emean','keV', 1, ' Mean energy of bin '
'Value','particles/cm2/bin',1,             'Fluence/flux'
'Error','particles/cm2/bin',1,'Error in   fluence/flux'
  0.000000E+00,   4.000000E+01,   2.000000E+01,   9.936218E+03,   0.000000E+00
  4.000000E+01,   1.000000E+02,   7.000000E+01,   1.490433E+04,   0.000000E+00
  1.000000E+02,   2.000000E+02,   1.500000E+02,   2.484055E+04,   0.000000E+00
  2.000000E+02,   3.000000E+02,   2.500000E+02,   2.484055E+04,   0.000000E+00
  3.000000E+02,   4.000000E+02,   3.500000E+02,   2.484055E+04,   0.000000E+00
  4.000000E+02,   5.000000E+02,   4.500000E+02,   2.484055E+04,   0.000000E+00
  5.000000E+02,   6.000000E+02,   5.500000E+02,   2.484055E+04,   0.000000E+00
  6.000000E+02,   7.000000E+02,   6.500000E+02,   2.484055E+04,   0.000000E+00
  7.000000E+02,   8.000000E+02,   7.500000E+02,   2.484055E+04,   0.000000E+00
  8.000000E+02,   1.000000E+03,   9.000000E+02,   4.968109E+04,   0.000000E+00
  1.000000E+03,   1.250000E+03,   1.125000E+03,   6.210136E+04,   0.000000E+00
  1.250000E+03,   1.500000E+03,   1.375000E+03,   6.210136E+04,   0.000000E+00
  1.500000E+03,   1.750000E+03,   1.625000E+03,   6.210136E+04,   0.000000E+00
  1.750000E+03,   2.000000E+03,   1.875000E+03,   6.210136E+04,   0.000000E+00
  2.000000E+03,   2.250000E+03,   2.125000E+03,   6.531077E+04,   0.000000E+00
  2.250000E+03,   2.500000E+03,   2.375000E+03,   8.441168E+04,   0.000000E+00
  2.500000E+03,   2.750000E+03,   2.625000E+03,   8.441168E+04,   0.000000E+00
  2.750000E+03,   3.000000E+03,   2.875000E+03,   8.441168E+04,   0.000000E+00
  3.000000E+03,   3.250000E+03,   3.125000E+03,   9.620525E+04,   0.000000E+00
  3.250000E+03,   3.500000E+03,   3.375000E+03,   1.018808E+05,   0.000000E+00
  3.500000E+03,   3.750000E+03,   3.625000E+03,   1.018808E+05,   0.000000E+00
  3.750000E+03,   4.000000E+03,   3.875000E+03,   1.066078E+05,   0.000000E+00
  4.000000E+03,   4.250000E+03,   4.125000E+03,   1.149756E+05,   0.000000E+00
  4.250000E+03,   4.500000E+03,   4.375000E+03,   1.206153E+05,   0.000000E+00
  4.500000E+03,   4.750000E+03,   4.625000E+03,   1.346974E+05,   0.000000E+00
  4.750000E+03,   5.000000E+03,   4.875000E+03,   1.415657E+05,   0.000000E+00
  5.000000E+03,   5.500000E+03,   5.250000E+03,   2.831314E+05,   0.000000E+00
  5.500000E+03,   6.000000E+03,   5.750000E+03,   2.888417E+05,   0.000000E+00
  6.000000E+03,   6.500000E+03,   6.250000E+03,   3.115278E+05,   0.000000E+00
  6.500000E+03,   7.000000E+03,   6.750000E+03,   3.539841E+05,   0.000000E+00
  7.000000E+03,   1.000000E+04,   8.500000E+03,   2.469307E+06,   0.000000E+00
  1.000000E+04,   2.000000E+04,   1.500000E+04,   1.352992E+07,   0.000000E+00
  2.000000E+04,   3.000000E+04,   2.500000E+04,   2.389594E+07,   0.000000E+00
  3.000000E+04,   4.000000E+04,   3.500000E+04,   2.521493E+07,   0.000000E+00
  4.000000E+04,   5.000000E+04,   4.500000E+04,   2.565416E+07,   0.000000E+00
  5.000000E+04,   6.000000E+04,   5.500000E+04,   2.159906E+07,   0.000000E+00
  6.000000E+04,   7.000000E+04,   6.500000E+04,   1.575981E+07,   0.000000E+00
  7.000000E+04,   8.000000E+04,   7.500000E+04,   1.318665E+07,   0.000000E+00
  8.000000E+04,   1.000000E+05,   9.000000E+04,   2.061874E+07,   0.000000E+00
  1.000000E+05,   1.500000E+05,   1.250000E+05,   3.558382E+07,   0.000000E+00
  1.500000E+05,   2.000000E+05,   1.750000E+05,   2.181477E+07,   0.000000E+00
  2.000000E+05,   3.000000E+05,   2.500000E+05,   2.027986E+07,   0.000000E+00
  3.000000E+05,   4.000000E+05,   3.500000E+05,   5.501622E+06,   0.000000E+00
  4.000000E+05,   5.000000E+05,   4.500000E+05,   2.030072E+06,   0.000000E+00
  5.000000E+05,   8.000000E+05,   6.500000E+05,   4.670349E+05,   0.000000E+00
  8.000000E+05,   1.000000E+06,   0.000000E+00,   0.000000E+00,   0.000000E+00
'End of Block'
'*',    13,     3,     4,     0,     5,     5,    46,     1
'OMNIDIRECTIONAL FLUENCE ANALYSIS'
'MULASSIS ml-v01-19'
'geant4-09-02-ref-00 (19-December-2008)'
'FLU_BDY', 1, 2, ' '
'FLU_PAR, -1, e-      '
'FLU_AMN', 1, 0., 'deg'
'FLU_AMX', 1, 90., 'deg'
'Elo','keV', 1, ' Lower edge of energy    bin '
'Eup','keV', 1, ' Upper edge of energy    bin '
'Emean','keV', 1, ' Mean energy of bin '
'Value','particles/cm2/bin',1,             'Fluence/flux'
'Error','particles/cm2/bin',1,'Error in   fluence/flux'
  0.000000E+00,   4.000000E+01,   2.000000E+01,   1.169878E+07,   0.000000E+00
  4.000000E+01,   1.000000E+02,   7.000000E+01,   5.686889E+06,   0.000000E+00
  1.000000E+02,   2.000000E+02,   1.500000E+02,   3.032406E+06,   0.000000E+00
  2.000000E+02,   3.000000E+02,   2.500000E+02,   9.910005E+05,   0.000000E+00
  3.000000E+02,   4.000000E+02,   3.500000E+02,   3.985073E+05,   0.000000E+00
  4.000000E+02,   5.000000E+02,   4.500000E+02,   1.909981E+05,   0.000000E+00
  5.000000E+02,   6.000000E+02,   5.500000E+02,   8.914073E+04,   0.000000E+00
  6.000000E+02,   7.000000E+02,   6.500000E+02,   4.764468E+04,   0.000000E+00
  7.000000E+02,   8.000000E+02,   7.500000E+02,   2.657339E+04,   0.000000E+00
  8.000000E+02,   1.000000E+03,   9.000000E+02,   2.741236E+04,   0.000000E+00
  1.000000E+03,   1.250000E+03,   1.125000E+03,   1.455349E+04,   0.000000E+00
  1.250000E+03,   1.500000E+03,   1.375000E+03,   7.059987E+03,   0.000000E+00
  1.500000E+03,   1.750000E+03,   1.625000E+03,   3.447261E+03,   0.000000E+00
  1.750000E+03,   2.000000E+03,   1.875000E+03,   2.377744E+03,   0.000000E+00
  2.000000E+03,   2.250000E+03,   2.125000E+03,   1.778726E+03,   0.000000E+00
  2.250000E+03,   2.500000E+03,   2.375000E+03,   1.418651E+03,   0.000000E+00
  2.500000E+03,   2.750000E+03,   2.625000E+03,   1.125658E+03,   0.000000E+00
  2.750000E+03,   3.000000E+03,   2.875000E+03,   9.918353E+02,   0.000000E+00
  3.000000E+03,   3.250000E+03,   3.125000E+03,   9.232948E+02,   0.000000E+00
  3.250000E+03,   3.500000E+03,   3.375000E+03,   8.431453E+02,   0.000000E+00
  3.500000E+03,   3.750000E+03,   3.625000E+03,   7.810688E+02,   0.000000E+00
  3.750000E+03,   4.000000E+03,   3.875000E+03,   7.810688E+02,   0.000000E+00
  4.000000E+03,   4.250000E+03,   4.125000E+03,   7.810688E+02,   0.000000E+00
  4.250000E+03,   4.500000E+03,   4.375000E+03,   7.810688E+02,   0.000000E+00
  4.500000E+03,   4.750000E+03,   4.625000E+03,   7.810688E+02,   0.000000E+00
  4.750000E+03,   5.000000E+03,   4.875000E+03,   7.810688E+02,   0.000000E+00
  5.000000E+03,   5.500000E+03,   5.250000E+03,   1.562138E+03,   0.000000E+00
  5.500000E+03,   6.000000E+03,   5.750000E+03,   1.562138E+03,   0.000000E+00
  6.000000E+03,   6.500000E+03,   6.250000E+03,   1.562138E+03,   0.000000E+00
  6.500000E+03,   7.000000E+03,   6.750000E+03,   1.562138E+03,   0.000000E+00
  7.000000E+03,   1.000000E+04,   8.500000E+03,   9.372826E+03,   0.000000E+00
  1.000000E+04,   2.000000E+04,   1.500000E+04,   3.124275E+04,   0.000000E+00
  2.000000E+04,   3.000000E+04,   2.500000E+04,   3.124275E+04,   0.000000E+00
  3.000000E+04,   4.000000E+04,   3.500000E+04,   3.124275E+04,   0.000000E+00
  4.000000E+04,   5.000000E+04,   4.500000E+04,   3.124275E+04,   0.000000E+00
  5.000000E+04,   6.000000E+04,   5.500000E+04,   3.124275E+04,   0.000000E+00
  6.000000E+04,   7.000000E+04,   6.500000E+04,   3.124275E+04,   0.000000E+00
  7.000000E+04,   8.000000E+04,   7.500000E+04,   2.946111E+04,   0.000000E+00
  8.000000E+04,   1.000000E+05,   9.000000E+04,   3.741028E+04,   0.000000E+00
  1.000000E+05,   1.500000E+05,   1.250000E+05,   4.714161E+04,   0.000000E+00
  1.500000E+05,   2.000000E+05,   1.750000E+05,   1.643796E+04,   0.000000E+00
  2.000000E+05,   3.000000E+05,   2.500000E+05,   9.666733E+03,   0.000000E+00
  3.000000E+05,   4.000000E+05,   3.500000E+05,   2.814364E+03,   0.000000E+00
  4.000000E+05,   5.000000E+05,   4.500000E+05,   8.831036E+02,   0.000000E+00
  5.000000E+05,   8.000000E+05,   6.500000E+05,   1.167614E+02,   0.000000E+00
  8.000000E+05,   1.000000E+06,   0.000000E+00,   0.000000E+00,   0.000000E+00
'End of Block'
'*',    13,     3,     4,     0,     5,     5,    46,    -1
'OMNIDIRECTIONAL FLUENCE ANALYSIS'
'MULASSIS ml-v01-19'
'geant4-09-02-ref-00 (19-December-2008)'
'FLU_BDY', 1, 2, ' '
'FLU_PAR, -1, neutron '
'FLU_AMN', 1, 0., 'deg'
'FLU_AMX', 1, 90., 'deg'
'Elo','keV', 1, ' Lower edge of energy    bin '
'Eup','keV', 1, ' Upper edge of energy    bin '
'Emean','keV', 1, ' Mean energy of bin '
'Value','particles/cm2/bin',1,             'Fluence/flux'
'Error','particles/cm2/bin',1,'Error in   fluence/flux'
  0.000000E+00,   4.000000E+01,   2.000000E+01,   1.096864E+05,   0.000000E+00
  4.000000E+01,   1.000000E+02,   7.000000E+01,   1.645296E+05,   0.000000E+00
  1.000000E+02,   2.000000E+02,   1.500000E+02,   2.742160E+05,   0.000000E+00
  2.000000E+02,   3.000000E+02,   2.500000E+02,   2.742160E+05,   0.000000E+00
  3.000000E+02,   4.000000E+02,   3.500000E+02,   2.742160E+05,   0.000000E+00
  4.000000E+02,   5.000000E+02,   4.500000E+02,   2.742160E+05,   0.000000E+00
  5.000000E+02,   6.000000E+02,   5.500000E+02,   2.742160E+05,   0.000000E+00
  6.000000E+02,   7.000000E+02,   6.500000E+02,   2.742160E+05,   0.000000E+00
  7.000000E+02,   8.000000E+02,   7.500000E+02,   2.742160E+05,   0.000000E+00
  8.000000E+02,   1.000000E+03,   9.000000E+02,   5.484320E+05,   0.000000E+00
  1.000000E+03,   1.250000E+03,   1.125000E+03,   6.855400E+05,   0.000000E+00
  1.250000E+03,   1.500000E+03,   1.375000E+03,   6.855400E+05,   0.000000E+00
  1.500000E+03,   1.750000E+03,   1.625000E+03,   6.855400E+05,   0.000000E+00
  1.750000E+03,   2.000000E+03,   1.875000E+03,   6.855400E+05,   0.000000E+00
  2.000000E+03,   2.250000E+03,   2.125000E+03,   6.747856E+05,   0.000000E+00
  2.250000E+03,   2.500000E+03,   2.375000E+03,   6.107806E+05,   0.000000E+00
  2.500000E+03,   2.750000E+03,   2.625000E+03,   6.107806E+05,   0.000000E+00
  2.750000E+03,   3.000000E+03,   2.875000E+03,   6.107806E+05,   0.000000E+00
  3.000000E+03,   3.250000E+03,   3.125000E+03,   5.648096E+05,   0.000000E+00
  3.250000E+03,   3.500000E+03,   3.375000E+03,   5.426865E+05,   0.000000E+00
  3.500000E+03,   3.750000E+03,   3.625000E+03,   5.426865E+05,   0.000000E+00
  3.750000E+03,   4.000000E+03,   3.875000E+03,   5.197271E+05,   0.000000E+00
  4.000000E+03,   4.250000E+03,   4.125000E+03,   4.790842E+05,   0.000000E+00
  4.250000E+03,   4.500000E+03,   4.375000E+03,   4.680022E+05,   0.000000E+00
  4.500000E+03,   4.750000E+03,   4.625000E+03,   4.398364E+05,   0.000000E+00
  4.750000E+03,   5.000000E+03,   4.875000E+03,   3.979642E+05,   0.000000E+00
  5.000000E+03,   5.500000E+03,   5.250000E+03,   7.959285E+05,   0.000000E+00
  5.500000E+03,   6.000000E+03,   5.750000E+03,   7.508459E+05,   0.000000E+00
  6.000000E+03,   6.500000E+03,   6.250000E+03,   6.991848E+05,   0.000000E+00
  6.500000E+03,   7.000000E+03,   6.750000E+03,   6.136758E+05,   0.000000E+00
  7.000000E+03,   1.000000E+04,   8.500000E+03,   3.032381E+06,   0.000000E+00
  1.000000E+04,   2.000000E+04,   1.500000E+04,   5.453175E+06,   0.000000E+00
  2.000000E+04,   3.000000E+04,   2.500000E+04,   2.945975E+06,   0.000000E+00
  3.000000E+04,   4.000000E+04,   3.500000E+04,   2.002494E+06,   0.000000E+00
  4.000000E+04,   5.000000E+04,   4.500000E+04,   1.419141E+06,   0.000000E+00
  5.000000E+04,   6.000000E+04,   5.500000E+04,   1.064297E+06,   0.000000E+00
  6.000000E+04,   7.000000E+04,   6.500000E+04,   8.098921E+05,   0.000000E+00
  7.000000E+04,   8.000000E+04,   7.500000E+04,   6.364545E+05,   0.000000E+00
  8.000000E+04,   1.000000E+05,   9.000000E+04,   8.512994E+05,   0.000000E+00
  1.000000E+05,   1.500000E+05,   1.250000E+05,   1.097141E+06,   0.000000E+00
  1.500000E+05,   2.000000E+05,   1.750000E+05,   4.665321E+05,   0.000000E+00
  2.000000E+05,   3.000000E+05,   2.500000E+05,   2.857877E+05,   0.000000E+00
  3.000000E+05,   4.000000E+05,   3.500000E+05,   5.112189E+04,   0.000000E+00
  4.000000E+05,   5.000000E+05,   4.500000E+05,   1.185995E+04,   0.000000E+00
  5.000000E+05,   8.000000E+05,   6.500000E+05,   5.575489E+02,   0.000000E+00
  8.000000E+05,   1.000000E+06,   0.000000E+00,   0.000000E+00,   0.000000E+00
'End of File'
