'*',    13,     3,     4,     0,     5,     5,    46,     2
'OMNIDIRECTIONAL FLUENCE ANALYSIS'
'MULASSIS ml-v01-19'
'geant4-09-02-ref-00 (19-December-2008)'
'FLU_BDY', 1, 2, ' '
'FLU_PAR, -1, proton  '
'FLU_AMN', 1, 0., 'deg'
'FLU_AMX', 1, 90., 'deg'
'Elo','keV', 1, ' Lower edge of energy    bin '
'Eup','keV', 1, ' Upper edge of energy    bin '
'Emean','keV', 1, ' Mean energy of bin '
'Value','particles/cm2/bin',1,             'Fluence/flux'
'Error','particles/cm2/bin',1,'Error in   fluence/flux'
  0.000000E+00,   4.000000E+01,   2.000000E+01,   1.504188E+04,   0.000000E+00
  4.000000E+01,   1.000000E+02,   7.000000E+01,   2.256283E+04,   0.000000E+00
  1.000000E+02,   2.000000E+02,   1.500000E+02,   3.760471E+04,   0.000000E+00
  2.000000E+02,   3.000000E+02,   2.500000E+02,   3.760471E+04,   0.000000E+00
  3.000000E+02,   4.000000E+02,   3.500000E+02,   3.760471E+04,   0.000000E+00
  4.000000E+02,   5.000000E+02,   4.500000E+02,   3.760471E+04,   0.000000E+00
  5.000000E+02,   6.000000E+02,   5.500000E+02,   3.760471E+04,   0.000000E+00
  6.000000E+02,   7.000000E+02,   6.500000E+02,   3.760471E+04,   0.000000E+00
  7.000000E+02,   8.000000E+02,   7.500000E+02,   3.760471E+04,   0.000000E+00
  8.000000E+02,   1.000000E+03,   9.000000E+02,   7.520942E+04,   0.000000E+00
  1.000000E+03,   1.250000E+03,   1.125000E+03,   9.401178E+04,   0.000000E+00
  1.250000E+03,   1.500000E+03,   1.375000E+03,   9.401178E+04,   0.000000E+00
  1.500000E+03,   1.750000E+03,   1.625000E+03,   9.401178E+04,   0.000000E+00
  1.750000E+03,   2.000000E+03,   1.875000E+03,   9.401178E+04,   0.000000E+00
  2.000000E+03,   2.250000E+03,   2.125000E+03,   9.855946E+04,   0.000000E+00
  2.250000E+03,   2.500000E+03,   2.375000E+03,   1.256252E+05,   0.000000E+00
  2.500000E+03,   2.750000E+03,   2.625000E+03,   1.256252E+05,   0.000000E+00
  2.750000E+03,   3.000000E+03,   2.875000E+03,   1.256252E+05,   0.000000E+00
  3.000000E+03,   3.250000E+03,   3.125000E+03,   1.426480E+05,   0.000000E+00
  3.250000E+03,   3.500000E+03,   3.375000E+03,   1.508401E+05,   0.000000E+00
  3.500000E+03,   3.750000E+03,   3.625000E+03,   1.508401E+05,   0.000000E+00
  3.750000E+03,   4.000000E+03,   3.875000E+03,   1.578056E+05,   0.000000E+00
  4.000000E+03,   4.250000E+03,   4.125000E+03,   1.701359E+05,   0.000000E+00
  4.250000E+03,   4.500000E+03,   4.375000E+03,   1.781272E+05,   0.000000E+00
  4.500000E+03,   4.750000E+03,   4.625000E+03,   1.981139E+05,   0.000000E+00
  4.750000E+03,   5.000000E+03,   4.875000E+03,   2.097102E+05,   0.000000E+00
  5.000000E+03,   5.500000E+03,   5.250000E+03,   4.194204E+05,   0.000000E+00
  5.500000E+03,   6.000000E+03,   5.750000E+03,   4.291469E+05,   0.000000E+00
  6.000000E+03,   6.500000E+03,   6.250000E+03,   4.623306E+05,   0.000000E+00
  6.500000E+03,   7.000000E+03,   6.750000E+03,   5.240297E+05,   0.000000E+00
  7.000000E+03,   1.000000E+04,   8.500000E+03,   3.653480E+06,   0.000000E+00
  1.000000E+04,   2.000000E+04,   1.500000E+04,   1.998945E+07,   0.000000E+00
  2.000000E+04,   3.000000E+04,   2.500000E+04,   3.512617E+07,   0.000000E+00
  3.000000E+04,   4.000000E+04,   3.500000E+04,   3.755402E+07,   0.000000E+00
  4.000000E+04,   5.000000E+04,   4.500000E+04,   3.886184E+07,   0.000000E+00
  5.000000E+04,   6.000000E+04,   5.500000E+04,   3.378515E+07,   0.000000E+00
  6.000000E+04,   7.000000E+04,   6.500000E+04,   2.620298E+07,   0.000000E+00
  7.000000E+04,   8.000000E+04,   7.500000E+04,   2.248997E+07,   0.000000E+00
  8.000000E+04,   1.000000E+05,   9.000000E+04,   3.545581E+07,   0.000000E+00
  1.000000E+05,   1.500000E+05,   1.250000E+05,   6.469375E+07,   0.000000E+00
  1.500000E+05,   2.000000E+05,   1.750000E+05,   3.964855E+07,   0.000000E+00
  2.000000E+05,   3.000000E+05,   2.500000E+05,   3.260529E+07,   0.000000E+00
  3.000000E+05,   4.000000E+05,   0.000000E+00,  -4.215935E+06,   0.000000E+00
  4.000000E+05,   5.000000E+05,   4.500000E+05,   2.030072E+06,   0.000000E+00
  5.000000E+05,   8.000000E+05,   6.500000E+05,   4.670349E+05,   0.000000E+00
  8.000000E+05,   1.000000E+06,   0.000000E+00,   0.000000E+00,   0.000000E+00
'End of Block'
'*',    13,     3,     4,     0,     5,     5,    46,     1
'OMNIDIRECTIONAL FLUENCE ANALYSIS'
'MULASSIS ml-v01-19'
'geant4-09-02-ref-00 (19-December-2008)'
'FLU_BDY', 1, 2, ' '
'FLU_PAR, -1, e-      '
'FLU_AMN', 1, 0., 'deg'
'FLU_AMX', 1, 90., 'deg'
'Elo','keV', 1, ' Lower edge of energy    bin '
'Eup','keV', 1, ' Upper edge of energy    bin '
'Emean','keV', 1, ' Mean energy of bin '
'Value','particles/cm2/bin',1,             'Fluence/flux'
'Error','particles/cm2/bin',1,'Error in   fluence/flux'
  0.000000E+00,   4.000000E+01,   2.000000E+01,   1.893752E+07,   0.000000E+00
  4.000000E+01,   1.000000E+02,   7.000000E+01,   9.237920E+06,   0.000000E+00
  1.000000E+02,   2.000000E+02,   1.500000E+02,   4.802772E+06,   0.000000E+00
  2.000000E+02,   3.000000E+02,   2.500000E+02,   1.422376E+06,   0.000000E+00
  3.000000E+02,   4.000000E+02,   3.500000E+02,   4.730618E+05,   0.000000E+00
  4.000000E+02,   5.000000E+02,   4.500000E+02,   1.670813E+05,   0.000000E+00
  5.000000E+02,   6.000000E+02,   5.500000E+02,   6.884216E+04,   0.000000E+00
  6.000000E+02,   7.000000E+02,   6.500000E+02,   2.414524E+04,   0.000000E+00
  7.000000E+02,   8.000000E+02,   7.500000E+02,   9.162680E+03,   0.000000E+00
  8.000000E+02,   1.000000E+03,   9.000000E+02,   1.645325E+04,   0.000000E+00
  1.000000E+03,   1.250000E+03,   1.125000E+03,   1.593163E+04,   0.000000E+00
  1.250000E+03,   1.500000E+03,   1.375000E+03,   7.168701E+03,   0.000000E+00
  1.500000E+03,   1.750000E+03,   1.625000E+03,   2.708140E+03,   0.000000E+00
  1.750000E+03,   2.000000E+03,   1.875000E+03,   1.315492E+03,   0.000000E+00
  2.000000E+03,   2.250000E+03,   2.125000E+03,   7.619152E+02,   0.000000E+00
  2.250000E+03,   2.500000E+03,   2.375000E+03,   3.454375E+02,   0.000000E+00
  2.500000E+03,   2.750000E+03,   2.625000E+03,   1.562379E+03,   0.000000E+00
  2.750000E+03,   3.000000E+03,   2.875000E+03,   1.431649E+03,   0.000000E+00
  3.000000E+03,   3.250000E+03,   3.125000E+03,   1.363109E+03,   0.000000E+00
  3.250000E+03,   3.500000E+03,   3.375000E+03,   1.282959E+03,   0.000000E+00
  3.500000E+03,   3.750000E+03,   3.625000E+03,   1.220883E+03,   0.000000E+00
  3.750000E+03,   4.000000E+03,   3.875000E+03,   1.220883E+03,   0.000000E+00
  4.000000E+03,   4.250000E+03,   4.125000E+03,   1.220883E+03,   0.000000E+00
  4.250000E+03,   4.500000E+03,   4.375000E+03,   1.220883E+03,   0.000000E+00
  4.500000E+03,   4.750000E+03,   4.625000E+03,   1.220883E+03,   0.000000E+00
  4.750000E+03,   5.000000E+03,   4.875000E+03,   1.220883E+03,   0.000000E+00
  5.000000E+03,   5.500000E+03,   5.250000E+03,   2.441765E+03,   0.000000E+00
  5.500000E+03,   6.000000E+03,   5.750000E+03,   2.441765E+03,   0.000000E+00
  6.000000E+03,   6.500000E+03,   6.250000E+03,   2.441765E+03,   0.000000E+00
  6.500000E+03,   7.000000E+03,   6.750000E+03,   2.441765E+03,   0.000000E+00
  7.000000E+03,   1.000000E+04,   8.500000E+03,   1.465059E+04,   0.000000E+00
  1.000000E+04,   2.000000E+04,   1.500000E+04,   4.883531E+04,   0.000000E+00
  2.000000E+04,   3.000000E+04,   2.500000E+04,   4.883531E+04,   0.000000E+00
  3.000000E+04,   4.000000E+04,   3.500000E+04,   4.883531E+04,   0.000000E+00
  4.000000E+04,   5.000000E+04,   4.500000E+04,   4.883531E+04,   0.000000E+00
  5.000000E+04,   6.000000E+04,   5.500000E+04,   4.883531E+04,   0.000000E+00
  6.000000E+04,   7.000000E+04,   6.500000E+04,   4.883531E+04,   0.000000E+00
  7.000000E+04,   8.000000E+04,   7.500000E+04,   4.631074E+04,   0.000000E+00
  8.000000E+04,   1.000000E+05,   9.000000E+04,   6.185811E+04,   0.000000E+00
  1.000000E+05,   1.500000E+05,   1.250000E+05,   8.062583E+04,   0.000000E+00
  1.500000E+05,   2.000000E+05,   1.750000E+05,   2.614166E+04,   0.000000E+00
  2.000000E+05,   3.000000E+05,   2.500000E+05,   9.400331E+03,   0.000000E+00
  3.000000E+05,   4.000000E+05,   0.000000E+00,  -1.245677E+03,   0.000000E+00
  4.000000E+05,   5.000000E+05,   4.500000E+05,   8.831036E+02,   0.000000E+00
  5.000000E+05,   8.000000E+05,   6.500000E+05,   1.167614E+02,   0.000000E+00
  8.000000E+05,   1.000000E+06,   0.000000E+00,   0.000000E+00,   0.000000E+00
'End of Block'
'*',    13,     3,     4,     0,     5,     5,    46,    -1
'OMNIDIRECTIONAL FLUENCE ANALYSIS'
'MULASSIS ml-v01-19'
'geant4-09-02-ref-00 (19-December-2008)'
'FLU_BDY', 1, 2, ' '
'FLU_PAR, -1, neutron '
'FLU_AMN', 1, 0., 'deg'
'FLU_AMX', 1, 90., 'deg'
'Elo','keV', 1, ' Lower edge of energy    bin '
'Eup','keV', 1, ' Upper edge of energy    bin '
'Emean','keV', 1, ' Mean energy of bin '
'Value','particles/cm2/bin',1,             'Fluence/flux'
'Error','particles/cm2/bin',1,'Error in   fluence/flux'
  0.000000E+00,   4.000000E+01,   2.000000E+01,   1.692782E+05,   0.000000E+00
  4.000000E+01,   1.000000E+02,   7.000000E+01,   2.539173E+05,   0.000000E+00
  1.000000E+02,   2.000000E+02,   1.500000E+02,   4.231954E+05,   0.000000E+00
  2.000000E+02,   3.000000E+02,   2.500000E+02,   4.231954E+05,   0.000000E+00
  3.000000E+02,   4.000000E+02,   3.500000E+02,   4.231954E+05,   0.000000E+00
  4.000000E+02,   5.000000E+02,   4.500000E+02,   4.231954E+05,   0.000000E+00
  5.000000E+02,   6.000000E+02,   5.500000E+02,   4.231954E+05,   0.000000E+00
  6.000000E+02,   7.000000E+02,   6.500000E+02,   4.231954E+05,   0.000000E+00
  7.000000E+02,   8.000000E+02,   7.500000E+02,   4.231954E+05,   0.000000E+00
  8.000000E+02,   1.000000E+03,   9.000000E+02,   8.463909E+05,   0.000000E+00
  1.000000E+03,   1.250000E+03,   1.125000E+03,   1.057989E+06,   0.000000E+00
  1.250000E+03,   1.500000E+03,   1.375000E+03,   1.057989E+06,   0.000000E+00
  1.500000E+03,   1.750000E+03,   1.625000E+03,   1.057989E+06,   0.000000E+00
  1.750000E+03,   2.000000E+03,   1.875000E+03,   1.057989E+06,   0.000000E+00
  2.000000E+03,   2.250000E+03,   2.125000E+03,   1.042750E+06,   0.000000E+00
  2.250000E+03,   2.500000E+03,   2.375000E+03,   9.520555E+05,   0.000000E+00
  2.500000E+03,   2.750000E+03,   2.625000E+03,   9.520555E+05,   0.000000E+00
  2.750000E+03,   3.000000E+03,   2.875000E+03,   9.520555E+05,   0.000000E+00
  3.000000E+03,   3.250000E+03,   3.125000E+03,   8.857011E+05,   0.000000E+00
  3.250000E+03,   3.500000E+03,   3.375000E+03,   8.537686E+05,   0.000000E+00
  3.500000E+03,   3.750000E+03,   3.625000E+03,   8.537686E+05,   0.000000E+00
  3.750000E+03,   4.000000E+03,   3.875000E+03,   8.199370E+05,   0.000000E+00
  4.000000E+03,   4.250000E+03,   4.125000E+03,   7.600478E+05,   0.000000E+00
  4.250000E+03,   4.500000E+03,   4.375000E+03,   7.443446E+05,   0.000000E+00
  4.500000E+03,   4.750000E+03,   4.625000E+03,   7.042362E+05,   0.000000E+00
  4.750000E+03,   5.000000E+03,   4.875000E+03,   6.335402E+05,   0.000000E+00
  5.000000E+03,   5.500000E+03,   5.250000E+03,   1.267080E+06,   0.000000E+00
  5.500000E+03,   6.000000E+03,   5.750000E+03,   1.190290E+06,   0.000000E+00
  6.000000E+03,   6.500000E+03,   6.250000E+03,   1.112259E+06,   0.000000E+00
  6.500000E+03,   7.000000E+03,   6.750000E+03,   9.782517E+05,   0.000000E+00
  7.000000E+03,   1.000000E+04,   8.500000E+03,   4.816780E+06,   0.000000E+00
  1.000000E+04,   2.000000E+04,   1.500000E+04,   8.321307E+06,   0.000000E+00
  2.000000E+04,   3.000000E+04,   2.500000E+04,   4.502865E+06,   0.000000E+00
  3.000000E+04,   4.000000E+04,   3.500000E+04,   3.151659E+06,   0.000000E+00
  4.000000E+04,   5.000000E+04,   4.500000E+04,   2.249082E+06,   0.000000E+00
  5.000000E+04,   6.000000E+04,   5.500000E+04,   1.711111E+06,   0.000000E+00
  6.000000E+04,   7.000000E+04,   6.500000E+04,   1.305951E+06,   0.000000E+00
  7.000000E+04,   8.000000E+04,   7.500000E+04,   1.036060E+06,   0.000000E+00
  8.000000E+04,   1.000000E+05,   9.000000E+04,   1.392836E+06,   0.000000E+00
  1.000000E+05,   1.500000E+05,   1.250000E+05,   1.757862E+06,   0.000000E+00
  1.500000E+05,   2.000000E+05,   1.750000E+05,   6.615394E+05,   0.000000E+00
  2.000000E+05,   3.000000E+05,   2.500000E+05,   2.582192E+05,   0.000000E+00
  3.000000E+05,   4.000000E+05,   0.000000E+00,  -2.700902E+04,   0.000000E+00
  4.000000E+05,   5.000000E+05,   4.500000E+05,   1.185995E+04,   0.000000E+00
  5.000000E+05,   8.000000E+05,   6.500000E+05,   5.575489E+02,   0.000000E+00
  8.000000E+05,   1.000000E+06,   0.000000E+00,   0.000000E+00,   0.000000E+00
'End of File'
