'*',    13,     3,     4,     0,     5,     5,    46,     2
'OMNIDIRECTIONAL FLUENCE ANALYSIS'
'MULASSIS ml-v01-19'
'geant4-09-02-ref-00 (19-December-2008)'
'FLU_BDY', 1, 2, ' '
'FLU_PAR, -1, proton  '
'FLU_AMN', 1, 0., 'deg'
'FLU_AMX', 1, 90., 'deg'
'Elo','keV', 1, ' Lower edge of energy    bin '
'Eup','keV', 1, ' Upper edge of energy    bin '
'Emean','keV', 1, ' Mean energy of bin '
'Value','particles/cm2/bin',1,             'Fluence/flux'
'Error','particles/cm2/bin',1,'Error in   fluence/flux'
  0.000000E+00,   4.000000E+01,   2.000000E+01,   8.562678E+04,   0.000000E+00
  4.000000E+01,   1.000000E+02,   7.000000E+01,   1.284402E+05,   0.000000E+00
  1.000000E+02,   2.000000E+02,   1.500000E+02,   2.140669E+05,   0.000000E+00
  2.000000E+02,   3.000000E+02,   2.500000E+02,   2.140669E+05,   0.000000E+00
  3.000000E+02,   4.000000E+02,   3.500000E+02,   2.140669E+05,   0.000000E+00
  4.000000E+02,   5.000000E+02,   4.500000E+02,   2.140669E+05,   0.000000E+00
  5.000000E+02,   6.000000E+02,   5.500000E+02,   2.140669E+05,   0.000000E+00
  6.000000E+02,   7.000000E+02,   6.500000E+02,   2.140669E+05,   0.000000E+00
  7.000000E+02,   8.000000E+02,   7.500000E+02,   2.140669E+05,   0.000000E+00
  8.000000E+02,   1.000000E+03,   9.000000E+02,   4.281339E+05,   0.000000E+00
  1.000000E+03,   1.250000E+03,   1.125000E+03,   5.351674E+05,   0.000000E+00
  1.250000E+03,   1.500000E+03,   1.375000E+03,   5.351674E+05,   0.000000E+00
  1.500000E+03,   1.750000E+03,   1.625000E+03,   5.351674E+05,   0.000000E+00
  1.750000E+03,   2.000000E+03,   1.875000E+03,   5.351674E+05,   0.000000E+00
  2.000000E+03,   2.250000E+03,   2.125000E+03,   5.524979E+05,   0.000000E+00
  2.250000E+03,   2.500000E+03,   2.375000E+03,   6.556412E+05,   0.000000E+00
  2.500000E+03,   2.750000E+03,   2.625000E+03,   6.556412E+05,   0.000000E+00
  2.750000E+03,   3.000000E+03,   2.875000E+03,   6.556412E+05,   0.000000E+00
  3.000000E+03,   3.250000E+03,   3.125000E+03,   7.263793E+05,   0.000000E+00
  3.250000E+03,   3.500000E+03,   3.375000E+03,   7.604214E+05,   0.000000E+00
  3.500000E+03,   3.750000E+03,   3.625000E+03,   7.604214E+05,   0.000000E+00
  3.750000E+03,   4.000000E+03,   3.875000E+03,   7.921033E+05,   0.000000E+00
  4.000000E+03,   4.250000E+03,   4.125000E+03,   8.481868E+05,   0.000000E+00
  4.250000E+03,   4.500000E+03,   4.375000E+03,   8.786405E+05,   0.000000E+00
  4.500000E+03,   4.750000E+03,   4.625000E+03,   9.554415E+05,   0.000000E+00
  4.750000E+03,   5.000000E+03,   4.875000E+03,   1.036095E+06,   0.000000E+00
  5.000000E+03,   5.500000E+03,   5.250000E+03,   2.072191E+06,   0.000000E+00
  5.500000E+03,   6.000000E+03,   5.750000E+03,   2.144432E+06,   0.000000E+00
  6.000000E+03,   6.500000E+03,   6.250000E+03,   2.291732E+06,   0.000000E+00
  6.500000E+03,   7.000000E+03,   6.750000E+03,   2.562576E+06,   0.000000E+00
  7.000000E+03,   1.000000E+04,   8.500000E+03,   1.775179E+07,   0.000000E+00
  1.000000E+04,   2.000000E+04,   1.500000E+04,   9.569940E+07,   0.000000E+00
  2.000000E+04,   3.000000E+04,   2.500000E+04,   1.633434E+08,   0.000000E+00
  3.000000E+04,   4.000000E+04,   3.500000E+04,   1.844481E+08,   0.000000E+00
  4.000000E+04,   5.000000E+04,   4.500000E+04,   2.037487E+08,   0.000000E+00
  5.000000E+04,   6.000000E+04,   5.500000E+04,   1.988283E+08,   0.000000E+00
  6.000000E+04,   7.000000E+04,   6.500000E+04,   1.852706E+08,   0.000000E+00
  7.000000E+04,   8.000000E+04,   7.500000E+04,   1.723134E+08,   0.000000E+00
  8.000000E+04,   1.000000E+05,   9.000000E+04,   2.914601E+08,   0.000000E+00
  1.000000E+05,   1.500000E+05,   1.250000E+05,   6.364632E+08,   0.000000E+00
  1.500000E+05,   2.000000E+05,   1.750000E+05,   5.129466E+08,   0.000000E+00
  2.000000E+05,   3.000000E+05,   2.500000E+05,   4.727622E+08,   0.000000E+00
  3.000000E+05,   4.000000E+05,   3.500000E+05,   1.077670E+08,   0.000000E+00
  4.000000E+05,   5.000000E+05,   4.500000E+05,   2.030072E+06,   0.000000E+00
  5.000000E+05,   8.000000E+05,   6.500000E+05,   4.670349E+05,   0.000000E+00
  8.000000E+05,   1.000000E+06,   0.000000E+00,   0.000000E+00,   0.000000E+00
'End of Block'
'*',    13,     3,     4,     0,     5,     5,    46,     1
'OMNIDIRECTIONAL FLUENCE ANALYSIS'
'MULASSIS ml-v01-19'
'geant4-09-02-ref-00 (19-December-2008)'
'FLU_BDY', 1, 2, ' '
'FLU_PAR, -1, e-      '
'FLU_AMN', 1, 0., 'deg'
'FLU_AMX', 1, 90., 'deg'
'Elo','keV', 1, ' Lower edge of energy    bin '
'Eup','keV', 1, ' Upper edge of energy    bin '
'Emean','keV', 1, ' Mean energy of bin '
'Value','particles/cm2/bin',1,             'Fluence/flux'
'Error','particles/cm2/bin',1,'Error in   fluence/flux'
  0.000000E+00,   4.000000E+01,   2.000000E+01,   1.537586E+08,   0.000000E+00
  4.000000E+01,   1.000000E+02,   7.000000E+01,   9.676834E+07,   0.000000E+00
  1.000000E+02,   2.000000E+02,   1.500000E+02,   5.826302E+07,   0.000000E+00
  2.000000E+02,   3.000000E+02,   2.500000E+02,   2.073369E+07,   0.000000E+00
  3.000000E+02,   4.000000E+02,   3.500000E+02,   8.265817E+06,   0.000000E+00
  4.000000E+02,   5.000000E+02,   4.500000E+02,   3.685731E+06,   0.000000E+00
  5.000000E+02,   6.000000E+02,   5.500000E+02,   1.486531E+06,   0.000000E+00
  6.000000E+02,   7.000000E+02,   6.500000E+02,   7.239181E+05,   0.000000E+00
  7.000000E+02,   8.000000E+02,   7.500000E+02,   3.981445E+05,   0.000000E+00
  8.000000E+02,   1.000000E+03,   9.000000E+02,   3.871364E+05,   0.000000E+00
  1.000000E+03,   1.250000E+03,   1.125000E+03,   2.309473E+05,   0.000000E+00
  1.250000E+03,   1.500000E+03,   1.375000E+03,   1.186751E+05,   0.000000E+00
  1.500000E+03,   1.750000E+03,   1.625000E+03,   5.177580E+04,   0.000000E+00
  1.750000E+03,   2.000000E+03,   1.875000E+03,   3.205623E+04,   0.000000E+00
  2.000000E+03,   2.250000E+03,   2.125000E+03,   2.078028E+04,   0.000000E+00
  2.250000E+03,   2.500000E+03,   2.375000E+03,   1.481344E+04,   0.000000E+00
  2.500000E+03,   2.750000E+03,   2.625000E+03,   8.588340E+03,   0.000000E+00
  2.750000E+03,   3.000000E+03,   2.875000E+03,   8.442365E+03,   0.000000E+00
  3.000000E+03,   3.250000E+03,   3.125000E+03,   8.373824E+03,   0.000000E+00
  3.250000E+03,   3.500000E+03,   3.375000E+03,   8.293675E+03,   0.000000E+00
  3.500000E+03,   3.750000E+03,   3.625000E+03,   8.231598E+03,   0.000000E+00
  3.750000E+03,   4.000000E+03,   3.875000E+03,   8.231598E+03,   0.000000E+00
  4.000000E+03,   4.250000E+03,   4.125000E+03,   8.231598E+03,   0.000000E+00
  4.250000E+03,   4.500000E+03,   4.375000E+03,   8.231598E+03,   0.000000E+00
  4.500000E+03,   4.750000E+03,   4.625000E+03,   8.231598E+03,   0.000000E+00
  4.750000E+03,   5.000000E+03,   4.875000E+03,   8.231598E+03,   0.000000E+00
  5.000000E+03,   5.500000E+03,   5.250000E+03,   1.646320E+04,   0.000000E+00
  5.500000E+03,   6.000000E+03,   5.750000E+03,   1.646320E+04,   0.000000E+00
  6.000000E+03,   6.500000E+03,   6.250000E+03,   1.646320E+04,   0.000000E+00
  6.500000E+03,   7.000000E+03,   6.750000E+03,   1.646320E+04,   0.000000E+00
  7.000000E+03,   1.000000E+04,   8.500000E+03,   9.877918E+04,   0.000000E+00
  1.000000E+04,   2.000000E+04,   1.500000E+04,   3.292639E+05,   0.000000E+00
  2.000000E+04,   3.000000E+04,   2.500000E+04,   3.292639E+05,   0.000000E+00
  3.000000E+04,   4.000000E+04,   3.500000E+04,   3.292639E+05,   0.000000E+00
  4.000000E+04,   5.000000E+04,   4.500000E+04,   3.292639E+05,   0.000000E+00
  5.000000E+04,   6.000000E+04,   5.500000E+04,   3.292639E+05,   0.000000E+00
  6.000000E+04,   7.000000E+04,   6.500000E+04,   3.292639E+05,   0.000000E+00
  7.000000E+04,   8.000000E+04,   7.500000E+04,   3.196432E+05,   0.000000E+00
  8.000000E+04,   1.000000E+05,   9.000000E+04,   5.167208E+05,   0.000000E+00
  1.000000E+05,   1.500000E+05,   1.250000E+05,   8.332436E+05,   0.000000E+00
  1.500000E+05,   2.000000E+05,   1.750000E+05,   3.593260E+05,   0.000000E+00
  2.000000E+05,   3.000000E+05,   2.500000E+05,   1.965613E+05,   0.000000E+00
  3.000000E+05,   4.000000E+05,   3.500000E+05,   3.523436E+04,   0.000000E+00
  4.000000E+05,   5.000000E+05,   4.500000E+05,   8.831036E+02,   0.000000E+00
  5.000000E+05,   8.000000E+05,   6.500000E+05,   1.167614E+02,   0.000000E+00
  8.000000E+05,   1.000000E+06,   0.000000E+00,   0.000000E+00,   0.000000E+00
'End of Block'
'*',    13,     3,     4,     0,     5,     5,    46,    -1
'OMNIDIRECTIONAL FLUENCE ANALYSIS'
'MULASSIS ml-v01-19'
'geant4-09-02-ref-00 (19-December-2008)'
'FLU_BDY', 1, 2, ' '
'FLU_PAR, -1, neutron '
'FLU_AMN', 1, 0., 'deg'
'FLU_AMX', 1, 90., 'deg'
'Elo','keV', 1, ' Lower edge of energy    bin '
'Eup','keV', 1, ' Upper edge of energy    bin '
'Emean','keV', 1, ' Mean energy of bin '
'Value','particles/cm2/bin',1,             'Fluence/flux'
'Error','particles/cm2/bin',1,'Error in   fluence/flux'
  0.000000E+00,   4.000000E+01,   2.000000E+01,   1.082028E+06,   0.000000E+00
  4.000000E+01,   1.000000E+02,   7.000000E+01,   1.623043E+06,   0.000000E+00
  1.000000E+02,   2.000000E+02,   1.500000E+02,   2.705071E+06,   0.000000E+00
  2.000000E+02,   3.000000E+02,   2.500000E+02,   2.705071E+06,   0.000000E+00
  3.000000E+02,   4.000000E+02,   3.500000E+02,   2.705071E+06,   0.000000E+00
  4.000000E+02,   5.000000E+02,   4.500000E+02,   2.705071E+06,   0.000000E+00
  5.000000E+02,   6.000000E+02,   5.500000E+02,   2.705071E+06,   0.000000E+00
  6.000000E+02,   7.000000E+02,   6.500000E+02,   2.705071E+06,   0.000000E+00
  7.000000E+02,   8.000000E+02,   7.500000E+02,   2.705071E+06,   0.000000E+00
  8.000000E+02,   1.000000E+03,   9.000000E+02,   5.410142E+06,   0.000000E+00
  1.000000E+03,   1.250000E+03,   1.125000E+03,   6.762677E+06,   0.000000E+00
  1.250000E+03,   1.500000E+03,   1.375000E+03,   6.762677E+06,   0.000000E+00
  1.500000E+03,   1.750000E+03,   1.625000E+03,   6.762677E+06,   0.000000E+00
  1.750000E+03,   2.000000E+03,   1.875000E+03,   6.762677E+06,   0.000000E+00
  2.000000E+03,   2.250000E+03,   2.125000E+03,   6.704605E+06,   0.000000E+00
  2.250000E+03,   2.500000E+03,   2.375000E+03,   6.358983E+06,   0.000000E+00
  2.500000E+03,   2.750000E+03,   2.625000E+03,   6.358983E+06,   0.000000E+00
  2.750000E+03,   3.000000E+03,   2.875000E+03,   6.358983E+06,   0.000000E+00
  3.000000E+03,   3.250000E+03,   3.125000E+03,   6.083248E+06,   0.000000E+00
  3.250000E+03,   3.500000E+03,   3.375000E+03,   5.950553E+06,   0.000000E+00
  3.500000E+03,   3.750000E+03,   3.625000E+03,   5.950553E+06,   0.000000E+00
  3.750000E+03,   4.000000E+03,   3.875000E+03,   5.796673E+06,   0.000000E+00
  4.000000E+03,   4.250000E+03,   4.125000E+03,   5.524271E+06,   0.000000E+00
  4.250000E+03,   4.500000E+03,   4.375000E+03,   5.464429E+06,   0.000000E+00
  4.500000E+03,   4.750000E+03,   4.625000E+03,   5.307711E+06,   0.000000E+00
  4.750000E+03,   5.000000E+03,   4.875000E+03,   4.816009E+06,   0.000000E+00
  5.000000E+03,   5.500000E+03,   5.250000E+03,   9.632018E+06,   0.000000E+00
  5.500000E+03,   6.000000E+03,   5.750000E+03,   9.061675E+06,   0.000000E+00
  6.000000E+03,   6.500000E+03,   6.250000E+03,   8.663161E+06,   0.000000E+00
  6.500000E+03,   7.000000E+03,   6.750000E+03,   7.845230E+06,   0.000000E+00
  7.000000E+03,   1.000000E+04,   8.500000E+03,   3.987972E+07,   0.000000E+00
  1.000000E+04,   2.000000E+04,   1.500000E+04,   6.929564E+07,   0.000000E+00
  2.000000E+04,   3.000000E+04,   2.500000E+04,   3.539072E+07,   0.000000E+00
  3.000000E+04,   4.000000E+04,   3.500000E+04,   2.511175E+07,   0.000000E+00
  4.000000E+04,   5.000000E+04,   4.500000E+04,   1.904396E+07,   0.000000E+00
  5.000000E+04,   6.000000E+04,   5.500000E+04,   1.521104E+07,   0.000000E+00
  6.000000E+04,   7.000000E+04,   6.500000E+04,   1.239405E+07,   0.000000E+00
  7.000000E+04,   8.000000E+04,   7.500000E+04,   1.028587E+07,   0.000000E+00
  8.000000E+04,   1.000000E+05,   9.000000E+04,   1.553026E+07,   0.000000E+00
  1.000000E+05,   1.500000E+05,   1.250000E+05,   2.280672E+07,   0.000000E+00
  1.500000E+05,   2.000000E+05,   1.750000E+05,   1.041955E+07,   0.000000E+00
  2.000000E+05,   3.000000E+05,   2.500000E+05,   5.651600E+06,   0.000000E+00
  3.000000E+05,   4.000000E+05,   3.500000E+05,   5.427809E+05,   0.000000E+00
  4.000000E+05,   5.000000E+05,   4.500000E+05,   1.185995E+04,   0.000000E+00
  5.000000E+05,   8.000000E+05,   6.500000E+05,   5.575489E+02,   0.000000E+00
  8.000000E+05,   1.000000E+06,   0.000000E+00,   0.000000E+00,   0.000000E+00
'End of File'
