'*',    13,     3,     4,     0,     5,     5,    46,     2
'OMNIDIRECTIONAL FLUENCE ANALYSIS'
'MULASSIS ml-v01-19'
'geant4-09-02-ref-00 (19-December-2008)'
'FLU_BDY', 1, 2, ' '
'FLU_PAR, -1, proton  '
'FLU_AMN', 1, 0., 'deg'
'FLU_AMX', 1, 90., 'deg'
'Elo','keV', 1, ' Lower edge of energy    bin '
'Eup','keV', 1, ' Upper edge of energy    bin '
'Emean','keV', 1, ' Mean energy of bin '
'Value','particles/cm2/bin',1,             'Fluence/flux'
'Error','particles/cm2/bin',1,'Error in   fluence/flux'
  0.000000E+00,   4.000000E+01,   2.000000E+01,   2.211495E+05,   0.000000E+00
  4.000000E+01,   1.000000E+02,   7.000000E+01,   3.317242E+05,   0.000000E+00
  1.000000E+02,   2.000000E+02,   1.500000E+02,   5.528737E+05,   0.000000E+00
  2.000000E+02,   3.000000E+02,   2.500000E+02,   5.528737E+05,   0.000000E+00
  3.000000E+02,   4.000000E+02,   3.500000E+02,   5.528737E+05,   0.000000E+00
  4.000000E+02,   5.000000E+02,   4.500000E+02,   5.528737E+05,   0.000000E+00
  5.000000E+02,   6.000000E+02,   5.500000E+02,   5.528737E+05,   0.000000E+00
  6.000000E+02,   7.000000E+02,   6.500000E+02,   5.528737E+05,   0.000000E+00
  7.000000E+02,   8.000000E+02,   7.500000E+02,   5.528737E+05,   0.000000E+00
  8.000000E+02,   1.000000E+03,   9.000000E+02,   1.105747E+06,   0.000000E+00
  1.000000E+03,   1.250000E+03,   1.125000E+03,   1.382184E+06,   0.000000E+00
  1.250000E+03,   1.500000E+03,   1.375000E+03,   1.382184E+06,   0.000000E+00
  1.500000E+03,   1.750000E+03,   1.625000E+03,   1.382184E+06,   0.000000E+00
  1.750000E+03,   2.000000E+03,   1.875000E+03,   1.382184E+06,   0.000000E+00
  2.000000E+03,   2.250000E+03,   2.125000E+03,   1.423221E+06,   0.000000E+00
  2.250000E+03,   2.500000E+03,   2.375000E+03,   1.667453E+06,   0.000000E+00
  2.500000E+03,   2.750000E+03,   2.625000E+03,   1.667453E+06,   0.000000E+00
  2.750000E+03,   3.000000E+03,   2.875000E+03,   1.667453E+06,   0.000000E+00
  3.000000E+03,   3.250000E+03,   3.125000E+03,   1.838203E+06,   0.000000E+00
  3.250000E+03,   3.500000E+03,   3.375000E+03,   1.920375E+06,   0.000000E+00
  3.500000E+03,   3.750000E+03,   3.625000E+03,   1.920375E+06,   0.000000E+00
  3.750000E+03,   4.000000E+03,   3.875000E+03,   1.998277E+06,   0.000000E+00
  4.000000E+03,   4.250000E+03,   4.125000E+03,   2.136181E+06,   0.000000E+00
  4.250000E+03,   4.500000E+03,   4.375000E+03,   2.208292E+06,   0.000000E+00
  4.500000E+03,   4.750000E+03,   4.625000E+03,   2.390465E+06,   0.000000E+00
  4.750000E+03,   5.000000E+03,   4.875000E+03,   2.599603E+06,   0.000000E+00
  5.000000E+03,   5.500000E+03,   5.250000E+03,   5.199206E+06,   0.000000E+00
  5.500000E+03,   6.000000E+03,   5.750000E+03,   5.389104E+06,   0.000000E+00
  6.000000E+03,   6.500000E+03,   6.250000E+03,   5.749247E+06,   0.000000E+00
  6.500000E+03,   7.000000E+03,   6.750000E+03,   6.410911E+06,   0.000000E+00
  7.000000E+03,   1.000000E+04,   8.500000E+03,   4.434845E+07,   0.000000E+00
  1.000000E+04,   2.000000E+04,   1.500000E+04,   2.382538E+08,   0.000000E+00
  2.000000E+04,   3.000000E+04,   2.500000E+04,   4.041569E+08,   0.000000E+00
  3.000000E+04,   4.000000E+04,   3.500000E+04,   4.607567E+08,   0.000000E+00
  4.000000E+04,   5.000000E+04,   4.500000E+04,   5.143498E+08,   0.000000E+00
  5.000000E+04,   6.000000E+04,   5.500000E+04,   5.104818E+08,   0.000000E+00
  6.000000E+04,   7.000000E+04,   6.500000E+04,   4.861041E+08,   0.000000E+00
  7.000000E+04,   8.000000E+04,   7.500000E+04,   4.569978E+08,   0.000000E+00
  8.000000E+04,   1.000000E+05,   9.000000E+04,   7.844749E+08,   0.000000E+00
  1.000000E+05,   1.500000E+05,   1.250000E+05,   1.771482E+09,   0.000000E+00
  1.500000E+05,   2.000000E+05,   1.750000E+05,   1.482512E+09,   0.000000E+00
  2.000000E+05,   3.000000E+05,   2.500000E+05,   1.432322E+09,   0.000000E+00
  3.000000E+05,   4.000000E+05,   3.500000E+05,   3.923850E+08,   0.000000E+00
  4.000000E+05,   5.000000E+05,   4.500000E+05,   2.030072E+06,   0.000000E+00
  5.000000E+05,   8.000000E+05,   6.500000E+05,   4.670349E+05,   0.000000E+00
  8.000000E+05,   1.000000E+06,   0.000000E+00,   0.000000E+00,   0.000000E+00
'End of Block'
'*',    13,     3,     4,     0,     5,     5,    46,     1
'OMNIDIRECTIONAL FLUENCE ANALYSIS'
'MULASSIS ml-v01-19'
'geant4-09-02-ref-00 (19-December-2008)'
'FLU_BDY', 1, 2, ' '
'FLU_PAR, -1, e-      '
'FLU_AMN', 1, 0., 'deg'
'FLU_AMX', 1, 90., 'deg'
'Elo','keV', 1, ' Lower edge of energy    bin '
'Eup','keV', 1, ' Upper edge of energy    bin '
'Emean','keV', 1, ' Mean energy of bin '
'Value','particles/cm2/bin',1,             'Fluence/flux'
'Error','particles/cm2/bin',1,'Error in   fluence/flux'
  0.000000E+00,   4.000000E+01,   2.000000E+01,   4.208720E+08,   0.000000E+00
  4.000000E+01,   1.000000E+02,   7.000000E+01,   2.753834E+08,   0.000000E+00
  1.000000E+02,   2.000000E+02,   1.500000E+02,   1.692572E+08,   0.000000E+00
  2.000000E+02,   3.000000E+02,   2.500000E+02,   6.203106E+07,   0.000000E+00
  3.000000E+02,   4.000000E+02,   3.500000E+02,   2.539194E+07,   0.000000E+00
  4.000000E+02,   5.000000E+02,   4.500000E+02,   1.163249E+07,   0.000000E+00
  5.000000E+02,   6.000000E+02,   5.500000E+02,   4.752436E+06,   0.000000E+00
  6.000000E+02,   7.000000E+02,   6.500000E+02,   2.366871E+06,   0.000000E+00
  7.000000E+02,   8.000000E+02,   7.500000E+02,   1.313368E+06,   0.000000E+00
  8.000000E+02,   1.000000E+03,   9.000000E+02,   1.233926E+06,   0.000000E+00
  1.000000E+03,   1.250000E+03,   1.125000E+03,   7.023066E+05,   0.000000E+00
  1.250000E+03,   1.500000E+03,   1.375000E+03,   3.684440E+05,   0.000000E+00
  1.500000E+03,   1.750000E+03,   1.625000E+03,   1.659606E+05,   0.000000E+00
  1.750000E+03,   2.000000E+03,   1.875000E+03,   1.047617E+05,   0.000000E+00
  2.000000E+03,   2.250000E+03,   2.125000E+03,   6.820445E+04,   0.000000E+00
  2.250000E+03,   2.500000E+03,   2.375000E+03,   4.896884E+04,   0.000000E+00
  2.500000E+03,   2.750000E+03,   2.625000E+03,   2.227845E+04,   0.000000E+00
  2.750000E+03,   3.000000E+03,   2.875000E+03,   2.209055E+04,   0.000000E+00
  3.000000E+03,   3.250000E+03,   3.125000E+03,   2.202201E+04,   0.000000E+00
  3.250000E+03,   3.500000E+03,   3.375000E+03,   2.194186E+04,   0.000000E+00
  3.500000E+03,   3.750000E+03,   3.625000E+03,   2.187978E+04,   0.000000E+00
  3.750000E+03,   4.000000E+03,   3.875000E+03,   2.187978E+04,   0.000000E+00
  4.000000E+03,   4.250000E+03,   4.125000E+03,   2.187978E+04,   0.000000E+00
  4.250000E+03,   4.500000E+03,   4.375000E+03,   2.187978E+04,   0.000000E+00
  4.500000E+03,   4.750000E+03,   4.625000E+03,   2.187978E+04,   0.000000E+00
  4.750000E+03,   5.000000E+03,   4.875000E+03,   2.187978E+04,   0.000000E+00
  5.000000E+03,   5.500000E+03,   5.250000E+03,   4.375956E+04,   0.000000E+00
  5.500000E+03,   6.000000E+03,   5.750000E+03,   4.375956E+04,   0.000000E+00
  6.000000E+03,   6.500000E+03,   6.250000E+03,   4.375956E+04,   0.000000E+00
  6.500000E+03,   7.000000E+03,   6.750000E+03,   4.375956E+04,   0.000000E+00
  7.000000E+03,   1.000000E+04,   8.500000E+03,   2.625574E+05,   0.000000E+00
  1.000000E+04,   2.000000E+04,   1.500000E+04,   8.751912E+05,   0.000000E+00
  2.000000E+04,   3.000000E+04,   2.500000E+04,   8.751912E+05,   0.000000E+00
  3.000000E+04,   4.000000E+04,   3.500000E+04,   8.751912E+05,   0.000000E+00
  4.000000E+04,   5.000000E+04,   4.500000E+04,   8.751912E+05,   0.000000E+00
  5.000000E+04,   6.000000E+04,   5.500000E+04,   8.751912E+05,   0.000000E+00
  6.000000E+04,   7.000000E+04,   6.500000E+04,   8.751912E+05,   0.000000E+00
  7.000000E+04,   8.000000E+04,   7.500000E+04,   8.524104E+05,   0.000000E+00
  8.000000E+04,   1.000000E+05,   9.000000E+04,   1.411633E+06,   0.000000E+00
  1.000000E+05,   1.500000E+05,   1.250000E+05,   2.348426E+06,   0.000000E+00
  1.500000E+05,   2.000000E+05,   1.750000E+05,   1.059425E+06,   0.000000E+00
  2.000000E+05,   3.000000E+05,   2.500000E+05,   6.200207E+05,   0.000000E+00
  3.000000E+05,   4.000000E+05,   3.500000E+05,   1.295197E+05,   0.000000E+00
  4.000000E+05,   5.000000E+05,   4.500000E+05,   8.831036E+02,   0.000000E+00
  5.000000E+05,   8.000000E+05,   6.500000E+05,   1.167614E+02,   0.000000E+00
  8.000000E+05,   1.000000E+06,   0.000000E+00,   0.000000E+00,   0.000000E+00
'End of Block'
'*',    13,     3,     4,     0,     5,     5,    46,    -1
'OMNIDIRECTIONAL FLUENCE ANALYSIS'
'MULASSIS ml-v01-19'
'geant4-09-02-ref-00 (19-December-2008)'
'FLU_BDY', 1, 2, ' '
'FLU_PAR, -1, neutron '
'FLU_AMN', 1, 0., 'deg'
'FLU_AMX', 1, 90., 'deg'
'Elo','keV', 1, ' Lower edge of energy    bin '
'Eup','keV', 1, ' Upper edge of energy    bin '
'Emean','keV', 1, ' Mean energy of bin '
'Value','particles/cm2/bin',1,             'Fluence/flux'
'Error','particles/cm2/bin',1,'Error in   fluence/flux'
  0.000000E+00,   4.000000E+01,   2.000000E+01,   2.855295E+06,   0.000000E+00
  4.000000E+01,   1.000000E+02,   7.000000E+01,   4.282942E+06,   0.000000E+00
  1.000000E+02,   2.000000E+02,   1.500000E+02,   7.138237E+06,   0.000000E+00
  2.000000E+02,   3.000000E+02,   2.500000E+02,   7.138237E+06,   0.000000E+00
  3.000000E+02,   4.000000E+02,   3.500000E+02,   7.138237E+06,   0.000000E+00
  4.000000E+02,   5.000000E+02,   4.500000E+02,   7.138237E+06,   0.000000E+00
  5.000000E+02,   6.000000E+02,   5.500000E+02,   7.138237E+06,   0.000000E+00
  6.000000E+02,   7.000000E+02,   6.500000E+02,   7.138237E+06,   0.000000E+00
  7.000000E+02,   8.000000E+02,   7.500000E+02,   7.138237E+06,   0.000000E+00
  8.000000E+02,   1.000000E+03,   9.000000E+02,   1.427647E+07,   0.000000E+00
  1.000000E+03,   1.250000E+03,   1.125000E+03,   1.784559E+07,   0.000000E+00
  1.250000E+03,   1.500000E+03,   1.375000E+03,   1.784559E+07,   0.000000E+00
  1.500000E+03,   1.750000E+03,   1.625000E+03,   1.784559E+07,   0.000000E+00
  1.750000E+03,   2.000000E+03,   1.875000E+03,   1.784559E+07,   0.000000E+00
  2.000000E+03,   2.250000E+03,   2.125000E+03,   1.770808E+07,   0.000000E+00
  2.250000E+03,   2.500000E+03,   2.375000E+03,   1.688969E+07,   0.000000E+00
  2.500000E+03,   2.750000E+03,   2.625000E+03,   1.688969E+07,   0.000000E+00
  2.750000E+03,   3.000000E+03,   2.875000E+03,   1.688969E+07,   0.000000E+00
  3.000000E+03,   3.250000E+03,   3.125000E+03,   1.622411E+07,   0.000000E+00
  3.250000E+03,   3.500000E+03,   3.375000E+03,   1.590381E+07,   0.000000E+00
  3.500000E+03,   3.750000E+03,   3.625000E+03,   1.590381E+07,   0.000000E+00
  3.750000E+03,   4.000000E+03,   3.875000E+03,   1.552543E+07,   0.000000E+00
  4.000000E+03,   4.250000E+03,   4.125000E+03,   1.485562E+07,   0.000000E+00
  4.250000E+03,   4.500000E+03,   4.375000E+03,   1.471393E+07,   0.000000E+00
  4.500000E+03,   4.750000E+03,   4.625000E+03,   1.434091E+07,   0.000000E+00
  4.750000E+03,   5.000000E+03,   4.875000E+03,   1.306590E+07,   0.000000E+00
  5.000000E+03,   5.500000E+03,   5.250000E+03,   2.613181E+07,   0.000000E+00
  5.500000E+03,   6.000000E+03,   5.750000E+03,   2.463258E+07,   0.000000E+00
  6.000000E+03,   6.500000E+03,   6.250000E+03,   2.363442E+07,   0.000000E+00
  6.500000E+03,   7.000000E+03,   6.750000E+03,   2.152210E+07,   0.000000E+00
  7.000000E+03,   1.000000E+04,   8.500000E+03,   1.101205E+08,   0.000000E+00
  1.000000E+04,   2.000000E+04,   1.500000E+04,   1.927566E+08,   0.000000E+00
  2.000000E+04,   3.000000E+04,   2.500000E+04,   9.708713E+07,   0.000000E+00
  3.000000E+04,   4.000000E+04,   3.500000E+04,   6.887515E+07,   0.000000E+00
  4.000000E+04,   5.000000E+04,   4.500000E+04,   5.265089E+07,   0.000000E+00
  5.000000E+04,   6.000000E+04,   5.500000E+04,   4.231331E+07,   0.000000E+00
  6.000000E+04,   7.000000E+04,   6.500000E+04,   3.478538E+07,   0.000000E+00
  7.000000E+04,   8.000000E+04,   7.500000E+04,   2.904916E+07,   0.000000E+00
  8.000000E+04,   1.000000E+05,   9.000000E+04,   4.455236E+07,   0.000000E+00
  1.000000E+05,   1.500000E+05,   1.250000E+05,   6.693030E+07,   0.000000E+00
  1.500000E+05,   2.000000E+05,   1.750000E+05,   3.153325E+07,   0.000000E+00
  2.000000E+05,   3.000000E+05,   2.500000E+05,   1.810175E+07,   0.000000E+00
  3.000000E+05,   4.000000E+05,   3.500000E+05,   2.044473E+06,   0.000000E+00
  4.000000E+05,   5.000000E+05,   4.500000E+05,   1.185995E+04,   0.000000E+00
  5.000000E+05,   8.000000E+05,   6.500000E+05,   5.575489E+02,   0.000000E+00
  8.000000E+05,   1.000000E+06,   0.000000E+00,   0.000000E+00,   0.000000E+00
'End of File'
