'*',    13,     3,     4,     0,     5,     5,    46,     2
'OMNIDIRECTIONAL FLUENCE ANALYSIS'
'MULASSIS ml-v01-19'
'geant4-09-02-ref-00 (19-December-2008)'
'FLU_BDY', 1, 2, ' '
'FLU_PAR, -1, proton  '
'FLU_AMN', 1, 0., 'deg'
'FLU_AMX', 1, 90., 'deg'
'Elo','keV', 1, ' Lower edge of energy    bin '
'Eup','keV', 1, ' Upper edge of energy    bin '
'Emean','keV', 1, ' Mean energy of bin '
'Value','particles/cm2/bin',1,             'Fluence/flux'
'Error','particles/cm2/bin',1,'Error in   fluence/flux'
  0.000000E+00,   4.000000E+01,   2.000000E+01,   2.237547E+04,   0.000000E+00
  4.000000E+01,   1.000000E+02,   7.000000E+01,   3.356321E+04,   0.000000E+00
  1.000000E+02,   2.000000E+02,   1.500000E+02,   5.593868E+04,   0.000000E+00
  2.000000E+02,   3.000000E+02,   2.500000E+02,   5.593868E+04,   0.000000E+00
  3.000000E+02,   4.000000E+02,   3.500000E+02,   5.593868E+04,   0.000000E+00
  4.000000E+02,   5.000000E+02,   4.500000E+02,   5.593868E+04,   0.000000E+00
  5.000000E+02,   6.000000E+02,   5.500000E+02,   5.593868E+04,   0.000000E+00
  6.000000E+02,   7.000000E+02,   6.500000E+02,   5.593868E+04,   0.000000E+00
  7.000000E+02,   8.000000E+02,   7.500000E+02,   5.593868E+04,   0.000000E+00
  8.000000E+02,   1.000000E+03,   9.000000E+02,   1.118774E+05,   0.000000E+00
  1.000000E+03,   1.250000E+03,   1.125000E+03,   1.398467E+05,   0.000000E+00
  1.250000E+03,   1.500000E+03,   1.375000E+03,   1.398467E+05,   0.000000E+00
  1.500000E+03,   1.750000E+03,   1.625000E+03,   1.398467E+05,   0.000000E+00
  1.750000E+03,   2.000000E+03,   1.875000E+03,   1.398467E+05,   0.000000E+00
  2.000000E+03,   2.250000E+03,   2.125000E+03,   1.456331E+05,   0.000000E+00
  2.250000E+03,   2.500000E+03,   2.375000E+03,   1.800710E+05,   0.000000E+00
  2.500000E+03,   2.750000E+03,   2.625000E+03,   1.800710E+05,   0.000000E+00
  2.750000E+03,   3.000000E+03,   2.875000E+03,   1.800710E+05,   0.000000E+00
  3.000000E+03,   3.250000E+03,   3.125000E+03,   2.024488E+05,   0.000000E+00
  3.250000E+03,   3.500000E+03,   3.375000E+03,   2.132179E+05,   0.000000E+00
  3.500000E+03,   3.750000E+03,   3.625000E+03,   2.132179E+05,   0.000000E+00
  3.750000E+03,   4.000000E+03,   3.875000E+03,   2.227072E+05,   0.000000E+00
  4.000000E+03,   4.250000E+03,   4.125000E+03,   2.395054E+05,   0.000000E+00
  4.250000E+03,   4.500000E+03,   4.375000E+03,   2.496734E+05,   0.000000E+00
  4.500000E+03,   4.750000E+03,   4.625000E+03,   2.751782E+05,   0.000000E+00
  4.750000E+03,   5.000000E+03,   4.875000E+03,   2.941910E+05,   0.000000E+00
  5.000000E+03,   5.500000E+03,   5.250000E+03,   5.883820E+05,   0.000000E+00
  5.500000E+03,   6.000000E+03,   5.750000E+03,   6.048643E+05,   0.000000E+00
  6.000000E+03,   6.500000E+03,   6.250000E+03,   6.495790E+05,   0.000000E+00
  6.500000E+03,   7.000000E+03,   6.750000E+03,   7.322827E+05,   0.000000E+00
  7.000000E+03,   1.000000E+04,   8.500000E+03,   5.092877E+06,   0.000000E+00
  1.000000E+04,   2.000000E+04,   1.500000E+04,   2.770473E+07,   0.000000E+00
  2.000000E+04,   3.000000E+04,   2.500000E+04,   4.813238E+07,   0.000000E+00
  3.000000E+04,   4.000000E+04,   3.500000E+04,   5.262003E+07,   0.000000E+00
  4.000000E+04,   5.000000E+04,   4.500000E+04,   5.597127E+07,   0.000000E+00
  5.000000E+04,   6.000000E+04,   5.500000E+04,   5.118414E+07,   0.000000E+00
  6.000000E+04,   7.000000E+04,   6.500000E+04,   4.326101E+07,   0.000000E+00
  7.000000E+04,   8.000000E+04,   7.500000E+04,   3.865107E+07,   0.000000E+00
  8.000000E+04,   1.000000E+05,   9.000000E+04,   6.317302E+07,   0.000000E+00
  1.000000E+05,   1.500000E+05,   1.250000E+05,   1.265660E+08,   0.000000E+00
  1.500000E+05,   2.000000E+05,   1.750000E+05,   9.100770E+07,   0.000000E+00
  2.000000E+05,   3.000000E+05,   2.500000E+05,   7.926902E+07,   0.000000E+00
  3.000000E+05,   4.000000E+05,   3.500000E+05,   5.946161E+06,   0.000000E+00
  4.000000E+05,   5.000000E+05,   4.500000E+05,   2.030072E+06,   0.000000E+00
  5.000000E+05,   8.000000E+05,   6.500000E+05,   4.670349E+05,   0.000000E+00
  8.000000E+05,   1.000000E+06,   0.000000E+00,   0.000000E+00,   0.000000E+00
'End of Block'
'*',    13,     3,     4,     0,     5,     5,    46,     1
'OMNIDIRECTIONAL FLUENCE ANALYSIS'
'MULASSIS ml-v01-19'
'geant4-09-02-ref-00 (19-December-2008)'
'FLU_BDY', 1, 2, ' '
'FLU_PAR, -1, e-      '
'FLU_AMN', 1, 0., 'deg'
'FLU_AMX', 1, 90., 'deg'
'Elo','keV', 1, ' Lower edge of energy    bin '
'Eup','keV', 1, ' Upper edge of energy    bin '
'Emean','keV', 1, ' Mean energy of bin '
'Value','particles/cm2/bin',1,             'Fluence/flux'
'Error','particles/cm2/bin',1,'Error in   fluence/flux'
  0.000000E+00,   4.000000E+01,   2.000000E+01,   3.330146E+07,   0.000000E+00
  4.000000E+01,   1.000000E+02,   7.000000E+01,   1.858785E+07,   0.000000E+00
  1.000000E+02,   2.000000E+02,   1.500000E+02,   1.050165E+07,   0.000000E+00
  2.000000E+02,   3.000000E+02,   2.500000E+02,   3.460914E+06,   0.000000E+00
  3.000000E+02,   4.000000E+02,   3.500000E+02,   1.282983E+06,   0.000000E+00
  4.000000E+02,   5.000000E+02,   4.500000E+02,   5.247769E+05,   0.000000E+00
  5.000000E+02,   6.000000E+02,   5.500000E+02,   2.106454E+05,   0.000000E+00
  6.000000E+02,   7.000000E+02,   6.500000E+02,   9.244250E+04,   0.000000E+00
  7.000000E+02,   8.000000E+02,   7.500000E+02,   4.679107E+04,   0.000000E+00
  8.000000E+02,   1.000000E+03,   9.000000E+02,   5.328802E+04,   0.000000E+00
  1.000000E+03,   1.250000E+03,   1.125000E+03,   3.826089E+04,   0.000000E+00
  1.250000E+03,   1.500000E+03,   1.375000E+03,   1.859014E+04,   0.000000E+00
  1.500000E+03,   1.750000E+03,   1.625000E+03,   7.564210E+03,   0.000000E+00
  1.750000E+03,   2.000000E+03,   1.875000E+03,   4.271579E+03,   0.000000E+00
  2.000000E+03,   2.250000E+03,   2.125000E+03,   2.644629E+03,   0.000000E+00
  2.250000E+03,   2.500000E+03,   2.375000E+03,   1.668632E+03,   0.000000E+00
  2.500000E+03,   2.750000E+03,   2.625000E+03,   2.302849E+03,   0.000000E+00
  2.750000E+03,   3.000000E+03,   2.875000E+03,   2.170925E+03,   0.000000E+00
  3.000000E+03,   3.250000E+03,   3.125000E+03,   2.102385E+03,   0.000000E+00
  3.250000E+03,   3.500000E+03,   3.375000E+03,   2.022235E+03,   0.000000E+00
  3.500000E+03,   3.750000E+03,   3.625000E+03,   1.960159E+03,   0.000000E+00
  3.750000E+03,   4.000000E+03,   3.875000E+03,   1.960159E+03,   0.000000E+00
  4.000000E+03,   4.250000E+03,   4.125000E+03,   1.960159E+03,   0.000000E+00
  4.250000E+03,   4.500000E+03,   4.375000E+03,   1.960159E+03,   0.000000E+00
  4.500000E+03,   4.750000E+03,   4.625000E+03,   1.960159E+03,   0.000000E+00
  4.750000E+03,   5.000000E+03,   4.875000E+03,   1.960159E+03,   0.000000E+00
  5.000000E+03,   5.500000E+03,   5.250000E+03,   3.920318E+03,   0.000000E+00
  5.500000E+03,   6.000000E+03,   5.750000E+03,   3.920318E+03,   0.000000E+00
  6.000000E+03,   6.500000E+03,   6.250000E+03,   3.920318E+03,   0.000000E+00
  6.500000E+03,   7.000000E+03,   6.750000E+03,   3.920318E+03,   0.000000E+00
  7.000000E+03,   1.000000E+04,   8.500000E+03,   2.352191E+04,   0.000000E+00
  1.000000E+04,   2.000000E+04,   1.500000E+04,   7.840635E+04,   0.000000E+00
  2.000000E+04,   3.000000E+04,   2.500000E+04,   7.840635E+04,   0.000000E+00
  3.000000E+04,   4.000000E+04,   3.500000E+04,   7.840635E+04,   0.000000E+00
  4.000000E+04,   5.000000E+04,   4.500000E+04,   7.840635E+04,   0.000000E+00
  5.000000E+04,   6.000000E+04,   5.500000E+04,   7.840635E+04,   0.000000E+00
  6.000000E+04,   7.000000E+04,   6.500000E+04,   7.840635E+04,   0.000000E+00
  7.000000E+04,   8.000000E+04,   7.500000E+04,   7.519415E+04,   0.000000E+00
  8.000000E+04,   1.000000E+05,   9.000000E+04,   1.105937E+05,   0.000000E+00
  1.000000E+05,   1.500000E+05,   1.250000E+05,   1.616107E+05,   0.000000E+00
  1.500000E+05,   2.000000E+05,   1.750000E+05,   6.170104E+04,   0.000000E+00
  2.000000E+05,   3.000000E+05,   2.500000E+05,   2.854534E+04,   0.000000E+00
  3.000000E+05,   4.000000E+05,   3.500000E+05,   1.969453E+03,   0.000000E+00
  4.000000E+05,   5.000000E+05,   4.500000E+05,   8.831036E+02,   0.000000E+00
  5.000000E+05,   8.000000E+05,   6.500000E+05,   1.167614E+02,   0.000000E+00
  8.000000E+05,   1.000000E+06,   0.000000E+00,   0.000000E+00,   0.000000E+00
'End of Block'
'*',    13,     3,     4,     0,     5,     5,    46,    -1
'OMNIDIRECTIONAL FLUENCE ANALYSIS'
'MULASSIS ml-v01-19'
'geant4-09-02-ref-00 (19-December-2008)'
'FLU_BDY', 1, 2, ' '
'FLU_PAR, -1, neutron '
'FLU_AMN', 1, 0., 'deg'
'FLU_AMX', 1, 90., 'deg'
'Elo','keV', 1, ' Lower edge of energy    bin '
'Eup','keV', 1, ' Upper edge of energy    bin '
'Emean','keV', 1, ' Mean energy of bin '
'Value','particles/cm2/bin',1,             'Fluence/flux'
'Error','particles/cm2/bin',1,'Error in   fluence/flux'
  0.000000E+00,   4.000000E+01,   2.000000E+01,   2.650557E+05,   0.000000E+00
  4.000000E+01,   1.000000E+02,   7.000000E+01,   3.975835E+05,   0.000000E+00
  1.000000E+02,   2.000000E+02,   1.500000E+02,   6.626391E+05,   0.000000E+00
  2.000000E+02,   3.000000E+02,   2.500000E+02,   6.626391E+05,   0.000000E+00
  3.000000E+02,   4.000000E+02,   3.500000E+02,   6.626391E+05,   0.000000E+00
  4.000000E+02,   5.000000E+02,   4.500000E+02,   6.626391E+05,   0.000000E+00
  5.000000E+02,   6.000000E+02,   5.500000E+02,   6.626391E+05,   0.000000E+00
  6.000000E+02,   7.000000E+02,   6.500000E+02,   6.626391E+05,   0.000000E+00
  7.000000E+02,   8.000000E+02,   7.500000E+02,   6.626391E+05,   0.000000E+00
  8.000000E+02,   1.000000E+03,   9.000000E+02,   1.325278E+06,   0.000000E+00
  1.000000E+03,   1.250000E+03,   1.125000E+03,   1.656598E+06,   0.000000E+00
  1.250000E+03,   1.500000E+03,   1.375000E+03,   1.656598E+06,   0.000000E+00
  1.500000E+03,   1.750000E+03,   1.625000E+03,   1.656598E+06,   0.000000E+00
  1.750000E+03,   2.000000E+03,   1.875000E+03,   1.656598E+06,   0.000000E+00
  2.000000E+03,   2.250000E+03,   2.125000E+03,   1.637208E+06,   0.000000E+00
  2.250000E+03,   2.500000E+03,   2.375000E+03,   1.521811E+06,   0.000000E+00
  2.500000E+03,   2.750000E+03,   2.625000E+03,   1.521811E+06,   0.000000E+00
  2.750000E+03,   3.000000E+03,   2.875000E+03,   1.521811E+06,   0.000000E+00
  3.000000E+03,   3.250000E+03,   3.125000E+03,   1.434583E+06,   0.000000E+00
  3.250000E+03,   3.500000E+03,   3.375000E+03,   1.392605E+06,   0.000000E+00
  3.500000E+03,   3.750000E+03,   3.625000E+03,   1.392605E+06,   0.000000E+00
  3.750000E+03,   4.000000E+03,   3.875000E+03,   1.346515E+06,   0.000000E+00
  4.000000E+03,   4.250000E+03,   4.125000E+03,   1.264925E+06,   0.000000E+00
  4.250000E+03,   4.500000E+03,   4.375000E+03,   1.244945E+06,   0.000000E+00
  4.500000E+03,   4.750000E+03,   4.625000E+03,   1.193459E+06,   0.000000E+00
  4.750000E+03,   5.000000E+03,   4.875000E+03,   1.077549E+06,   0.000000E+00
  5.000000E+03,   5.500000E+03,   5.250000E+03,   2.155098E+06,   0.000000E+00
  5.500000E+03,   6.000000E+03,   5.750000E+03,   2.024972E+06,   0.000000E+00
  6.000000E+03,   6.500000E+03,   6.250000E+03,   1.913770E+06,   0.000000E+00
  6.500000E+03,   7.000000E+03,   6.750000E+03,   1.707335E+06,   0.000000E+00
  7.000000E+03,   1.000000E+04,   8.500000E+03,   8.537559E+06,   0.000000E+00
  1.000000E+04,   2.000000E+04,   1.500000E+04,   1.474459E+07,   0.000000E+00
  2.000000E+04,   3.000000E+04,   2.500000E+04,   7.760720E+06,   0.000000E+00
  3.000000E+04,   4.000000E+04,   3.500000E+04,   5.478745E+06,   0.000000E+00
  4.000000E+04,   5.000000E+04,   4.500000E+04,   4.033390E+06,   0.000000E+00
  5.000000E+04,   6.000000E+04,   5.500000E+04,   3.149671E+06,   0.000000E+00
  6.000000E+04,   7.000000E+04,   6.500000E+04,   2.488765E+06,   0.000000E+00
  7.000000E+04,   8.000000E+04,   7.500000E+04,   2.024420E+06,   0.000000E+00
  8.000000E+04,   1.000000E+05,   9.000000E+04,   2.904971E+06,   0.000000E+00
  1.000000E+05,   1.500000E+05,   1.250000E+05,   4.002489E+06,   0.000000E+00
  1.500000E+05,   2.000000E+05,   1.750000E+05,   1.691703E+06,   0.000000E+00
  2.000000E+05,   3.000000E+05,   2.500000E+05,   8.036645E+05,   0.000000E+00
  3.000000E+05,   4.000000E+05,   3.500000E+05,   2.159391E+04,   0.000000E+00
  4.000000E+05,   5.000000E+05,   4.500000E+05,   1.185995E+04,   0.000000E+00
  5.000000E+05,   8.000000E+05,   6.500000E+05,   5.575489E+02,   0.000000E+00
  8.000000E+05,   1.000000E+06,   0.000000E+00,   0.000000E+00,   0.000000E+00
'End of File'
