'*',    13,     3,     4,     0,     5,     5,    46,     2
'OMNIDIRECTIONAL FLUENCE ANALYSIS'
'MULASSIS ml-v01-19'
'geant4-09-02-ref-00 (19-December-2008)'
'FLU_BDY', 1, 2, ' '
'FLU_PAR, -1, proton  '
'FLU_AMN', 1, 0., 'deg'
'FLU_AMX', 1, 90., 'deg'
'Elo','keV', 1, ' Lower edge of energy    bin '
'Eup','keV', 1, ' Upper edge of energy    bin '
'Emean','keV', 1, ' Mean energy of bin '
'Value','particles/cm2/bin',1,             'Fluence/flux'
'Error','particles/cm2/bin',1,'Error in   fluence/flux'
  0.000000E+00,   4.000000E+01,   2.000000E+01,   6.361958E+06,   0.000000E+00
  4.000000E+01,   1.000000E+02,   7.000000E+01,   9.542937E+06,   0.000000E+00
  1.000000E+02,   2.000000E+02,   1.500000E+02,   1.590490E+07,   0.000000E+00
  2.000000E+02,   3.000000E+02,   2.500000E+02,   1.757477E+07,   0.000000E+00
  3.000000E+02,   4.000000E+02,   3.500000E+02,   2.047627E+07,   0.000000E+00
  4.000000E+02,   5.000000E+02,   4.500000E+02,   2.286816E+07,   0.000000E+00
  5.000000E+02,   6.000000E+02,   5.500000E+02,   2.719398E+07,   0.000000E+00
  6.000000E+02,   7.000000E+02,   6.500000E+02,   2.826027E+07,   0.000000E+00
  7.000000E+02,   8.000000E+02,   7.500000E+02,   3.305074E+07,   0.000000E+00
  8.000000E+02,   1.000000E+03,   9.000000E+02,   7.204663E+07,   0.000000E+00
  1.000000E+03,   1.250000E+03,   1.125000E+03,   1.085089E+08,   0.000000E+00
  1.250000E+03,   1.500000E+03,   1.375000E+03,   1.273171E+08,   0.000000E+00
  1.500000E+03,   1.750000E+03,   1.625000E+03,   1.460798E+08,   0.000000E+00
  1.750000E+03,   2.000000E+03,   1.875000E+03,   1.694718E+08,   0.000000E+00
  2.000000E+03,   2.250000E+03,   2.125000E+03,   1.943713E+08,   0.000000E+00
  2.250000E+03,   2.500000E+03,   2.375000E+03,   2.198267E+08,   0.000000E+00
  2.500000E+03,   2.750000E+03,   2.625000E+03,   2.512906E+08,   0.000000E+00
  2.750000E+03,   3.000000E+03,   2.875000E+03,   2.881548E+08,   0.000000E+00
  3.000000E+03,   3.250000E+03,   3.125000E+03,   3.322080E+08,   0.000000E+00
  3.250000E+03,   3.500000E+03,   3.375000E+03,   3.796553E+08,   0.000000E+00
  3.500000E+03,   3.750000E+03,   3.625000E+03,   3.989818E+08,   0.000000E+00
  3.750000E+03,   4.000000E+03,   3.875000E+03,   3.156414E+08,   0.000000E+00
  4.000000E+03,   4.250000E+03,   4.125000E+03,   2.324086E+08,   0.000000E+00
  4.250000E+03,   4.500000E+03,   4.375000E+03,   2.553677E+08,   0.000000E+00
  4.500000E+03,   4.750000E+03,   4.625000E+03,   2.789513E+08,   0.000000E+00
  4.750000E+03,   5.000000E+03,   4.875000E+03,   3.230251E+08,   0.000000E+00
  5.000000E+03,   5.500000E+03,   5.250000E+03,   5.379786E+08,   0.000000E+00
  5.500000E+03,   6.000000E+03,   5.750000E+03,   3.521066E+08,   0.000000E+00
  6.000000E+03,   6.500000E+03,   6.250000E+03,   4.350385E+08,   0.000000E+00
  6.500000E+03,   7.000000E+03,   6.750000E+03,   4.030584E+08,   0.000000E+00
  7.000000E+03,   1.000000E+04,   8.500000E+03,   1.737167E+09,   0.000000E+00
  1.000000E+04,   2.000000E+04,   1.500000E+04,   3.641353E+09,   0.000000E+00
  2.000000E+04,   3.000000E+04,   2.500000E+04,   2.126923E+09,   0.000000E+00
  3.000000E+04,   4.000000E+04,   3.500000E+04,   1.047265E+09,   0.000000E+00
  4.000000E+04,   5.000000E+04,   4.500000E+04,   7.202284E+08,   0.000000E+00
  5.000000E+04,   6.000000E+04,   5.500000E+04,   4.113806E+08,   0.000000E+00
  6.000000E+04,   7.000000E+04,   6.500000E+04,   3.409461E+08,   0.000000E+00
  7.000000E+04,   8.000000E+04,   7.500000E+04,   1.831171E+08,   0.000000E+00
  8.000000E+04,   1.000000E+05,   9.000000E+04,   2.699247E+08,   0.000000E+00
  1.000000E+05,   1.500000E+05,   1.250000E+05,   2.443921E+08,   0.000000E+00
  1.500000E+05,   2.000000E+05,   1.750000E+05,   8.687637E+07,   0.000000E+00
  2.000000E+05,   3.000000E+05,   2.500000E+05,   5.984351E+07,   0.000000E+00
  3.000000E+05,   4.000000E+05,   3.500000E+05,   5.653317E+05,   0.000000E+00
  4.000000E+05,   5.000000E+05,   4.500000E+05,   2.270311E+06,   0.000000E+00
  5.000000E+05,   8.000000E+05,   6.500000E+05,   9.319184E+05,   0.000000E+00
  8.000000E+05,   1.000000E+06,   0.000000E+00,   0.000000E+00,   0.000000E+00
'End of Block'
'*',    13,     3,     4,     0,     5,     5,    46,     1
'OMNIDIRECTIONAL FLUENCE ANALYSIS'
'MULASSIS ml-v01-19'
'geant4-09-02-ref-00 (19-December-2008)'
'FLU_BDY', 1, 2, ' '
'FLU_PAR, -1, e-      '
'FLU_AMN', 1, 0., 'deg'
'FLU_AMX', 1, 90., 'deg'
'Elo','keV', 1, ' Lower edge of energy    bin '
'Eup','keV', 1, ' Upper edge of energy    bin '
'Emean','keV', 1, ' Mean energy of bin '
'Value','particles/cm2/bin',1,             'Fluence/flux'
'Error','particles/cm2/bin',1,'Error in   fluence/flux'
  0.000000E+00,   4.000000E+01,   2.000000E+01,   3.650926E+11,   0.000000E+00
  4.000000E+01,   1.000000E+02,   7.000000E+01,   5.635292E+11,   0.000000E+00
  1.000000E+02,   2.000000E+02,   1.500000E+02,   1.165997E+12,   0.000000E+00
  2.000000E+02,   3.000000E+02,   2.500000E+02,   1.283886E+12,   0.000000E+00
  3.000000E+02,   4.000000E+02,   3.500000E+02,   1.137881E+12,   0.000000E+00
  4.000000E+02,   5.000000E+02,   4.500000E+02,   1.032498E+12,   0.000000E+00
  5.000000E+02,   6.000000E+02,   5.500000E+02,   8.574990E+11,   0.000000E+00
  6.000000E+02,   7.000000E+02,   6.500000E+02,   7.281783E+11,   0.000000E+00
  7.000000E+02,   8.000000E+02,   7.500000E+02,   5.806010E+11,   0.000000E+00
  8.000000E+02,   1.000000E+03,   9.000000E+02,   8.178050E+11,   0.000000E+00
  1.000000E+03,   1.250000E+03,   1.125000E+03,   6.231436E+11,   0.000000E+00
  1.250000E+03,   1.500000E+03,   1.375000E+03,   4.062353E+11,   0.000000E+00
  1.500000E+03,   1.750000E+03,   1.625000E+03,   2.758780E+11,   0.000000E+00
  1.750000E+03,   2.000000E+03,   1.875000E+03,   1.861336E+11,   0.000000E+00
  2.000000E+03,   2.250000E+03,   2.125000E+03,   1.293564E+11,   0.000000E+00
  2.250000E+03,   2.500000E+03,   2.375000E+03,   8.887290E+10,   0.000000E+00
  2.500000E+03,   2.750000E+03,   2.625000E+03,   5.813674E+10,   0.000000E+00
  2.750000E+03,   3.000000E+03,   2.875000E+03,   3.445108E+10,   0.000000E+00
  3.000000E+03,   3.250000E+03,   3.125000E+03,   1.820725E+10,   0.000000E+00
  3.250000E+03,   3.500000E+03,   3.375000E+03,   1.087800E+10,   0.000000E+00
  3.500000E+03,   3.750000E+03,   3.625000E+03,   5.799226E+09,   0.000000E+00
  3.750000E+03,   4.000000E+03,   3.875000E+03,   3.343139E+09,   0.000000E+00
  4.000000E+03,   4.250000E+03,   4.125000E+03,   1.676499E+09,   0.000000E+00
  4.250000E+03,   4.500000E+03,   4.375000E+03,   8.599119E+08,   0.000000E+00
  4.500000E+03,   4.750000E+03,   4.625000E+03,   4.030017E+08,   0.000000E+00
  4.750000E+03,   5.000000E+03,   4.875000E+03,   2.010640E+08,   0.000000E+00
  5.000000E+03,   5.500000E+03,   5.250000E+03,   1.243563E+08,   0.000000E+00
  5.500000E+03,   6.000000E+03,   5.750000E+03,   2.149317E+07,   0.000000E+00
  6.000000E+03,   6.500000E+03,   6.250000E+03,   2.724223E+06,   0.000000E+00
  6.500000E+03,   7.000000E+03,   0.000000E+00,  -3.051971E+03,   0.000000E+00
  7.000000E+03,   1.000000E+04,   8.500000E+03,   3.126271E+05,   0.000000E+00
  1.000000E+04,   2.000000E+04,   1.500000E+04,   3.906910E+05,   0.000000E+00
  2.000000E+04,   3.000000E+04,   2.500000E+04,   8.395314E+04,   0.000000E+00
  3.000000E+04,   4.000000E+04,   3.500000E+04,   2.450019E+04,   0.000000E+00
  4.000000E+04,   5.000000E+04,   4.500000E+04,   9.815865E+03,   0.000000E+00
  5.000000E+04,   6.000000E+04,   5.500000E+04,   4.869547E+03,   0.000000E+00
  6.000000E+04,   7.000000E+04,   6.500000E+04,   2.884228E+03,   0.000000E+00
  7.000000E+04,   8.000000E+04,   7.500000E+04,   1.770782E+03,   0.000000E+00
  8.000000E+04,   1.000000E+05,   9.000000E+04,   2.007747E+03,   0.000000E+00
  1.000000E+05,   1.500000E+05,   1.250000E+05,   1.902936E+03,   0.000000E+00
  1.500000E+05,   2.000000E+05,   1.750000E+05,   4.976098E+02,   0.000000E+00
  2.000000E+05,   3.000000E+05,   2.500000E+05,   1.607818E+02,   0.000000E+00
  3.000000E+05,   4.000000E+05,   0.000000E+00,  -1.064556E+01,   0.000000E+00
  4.000000E+05,   5.000000E+05,   4.500000E+05,   6.937986E+00,   0.000000E+00
  5.000000E+05,   8.000000E+05,   6.500000E+05,   8.991274E-01,   0.000000E+00
  8.000000E+05,   1.000000E+06,   0.000000E+00,   0.000000E+00,   0.000000E+00
'End of Block'
'*',    13,     3,     4,     0,     5,     5,    46,    -1
'OMNIDIRECTIONAL FLUENCE ANALYSIS'
'MULASSIS ml-v01-19'
'geant4-09-02-ref-00 (19-December-2008)'
'FLU_BDY', 1, 2, ' '
'FLU_PAR, -1, neutron '
'FLU_AMN', 1, 0., 'deg'
'FLU_AMX', 1, 90., 'deg'
'Elo','keV', 1, ' Lower edge of energy    bin '
'Eup','keV', 1, ' Upper edge of energy    bin '
'Emean','keV', 1, ' Mean energy of bin '
'Value','particles/cm2/bin',1,             'Fluence/flux'
'Error','particles/cm2/bin',1,'Error in   fluence/flux'
  0.000000E+00,   4.000000E+01,   2.000000E+01,   2.320589E+05,   0.000000E+00
  4.000000E+01,   1.000000E+02,   7.000000E+01,   3.480883E+05,   0.000000E+00
  1.000000E+02,   2.000000E+02,   1.500000E+02,   5.801472E+05,   0.000000E+00
  2.000000E+02,   3.000000E+02,   2.500000E+02,   5.798442E+05,   0.000000E+00
  3.000000E+02,   4.000000E+02,   3.500000E+02,   5.793176E+05,   0.000000E+00
  4.000000E+02,   5.000000E+02,   4.500000E+02,   5.766535E+05,   0.000000E+00
  5.000000E+02,   6.000000E+02,   5.500000E+02,   5.629383E+05,   0.000000E+00
  6.000000E+02,   7.000000E+02,   6.500000E+02,   5.410698E+05,   0.000000E+00
  7.000000E+02,   8.000000E+02,   7.500000E+02,   5.167152E+05,   0.000000E+00
  8.000000E+02,   1.000000E+03,   9.000000E+02,   9.659360E+05,   0.000000E+00
  1.000000E+03,   1.250000E+03,   1.125000E+03,   1.083142E+06,   0.000000E+00
  1.250000E+03,   1.500000E+03,   1.375000E+03,   9.508400E+05,   0.000000E+00
  1.500000E+03,   1.750000E+03,   1.625000E+03,   8.412508E+05,   0.000000E+00
  1.750000E+03,   2.000000E+03,   1.875000E+03,   7.530998E+05,   0.000000E+00
  2.000000E+03,   2.250000E+03,   2.125000E+03,   6.845542E+05,   0.000000E+00
  2.250000E+03,   2.500000E+03,   2.375000E+03,   6.310545E+05,   0.000000E+00
  2.500000E+03,   2.750000E+03,   2.625000E+03,   5.779229E+05,   0.000000E+00
  2.750000E+03,   3.000000E+03,   2.875000E+03,   5.323470E+05,   0.000000E+00
  3.000000E+03,   3.250000E+03,   3.125000E+03,   4.921605E+05,   0.000000E+00
  3.250000E+03,   3.500000E+03,   3.375000E+03,   4.568174E+05,   0.000000E+00
  3.500000E+03,   3.750000E+03,   3.625000E+03,   4.247581E+05,   0.000000E+00
  3.750000E+03,   4.000000E+03,   3.875000E+03,   3.913575E+05,   0.000000E+00
  4.000000E+03,   4.250000E+03,   4.125000E+03,   3.739866E+05,   0.000000E+00
  4.250000E+03,   4.500000E+03,   4.375000E+03,   3.386496E+05,   0.000000E+00
  4.500000E+03,   4.750000E+03,   4.625000E+03,   3.288584E+05,   0.000000E+00
  4.750000E+03,   5.000000E+03,   4.875000E+03,   2.982049E+05,   0.000000E+00
  5.000000E+03,   5.500000E+03,   5.250000E+03,   5.532721E+05,   0.000000E+00
  5.500000E+03,   6.000000E+03,   5.750000E+03,   4.864448E+05,   0.000000E+00
  6.000000E+03,   6.500000E+03,   6.250000E+03,   4.263283E+05,   0.000000E+00
  6.500000E+03,   7.000000E+03,   6.750000E+03,   3.799594E+05,   0.000000E+00
  7.000000E+03,   1.000000E+04,   8.500000E+03,   1.573533E+06,   0.000000E+00
  1.000000E+04,   2.000000E+04,   1.500000E+04,   2.195040E+06,   0.000000E+00
  2.000000E+04,   3.000000E+04,   2.500000E+04,   9.984067E+05,   0.000000E+00
  3.000000E+04,   4.000000E+04,   3.500000E+04,   4.916362E+05,   0.000000E+00
  4.000000E+04,   5.000000E+04,   4.500000E+04,   2.828326E+05,   0.000000E+00
  5.000000E+04,   6.000000E+04,   5.500000E+04,   1.805028E+05,   0.000000E+00
  6.000000E+04,   7.000000E+04,   6.500000E+04,   1.269004E+05,   0.000000E+00
  7.000000E+04,   8.000000E+04,   7.500000E+04,   9.004280E+04,   0.000000E+00
  8.000000E+04,   1.000000E+05,   9.000000E+04,   1.126006E+05,   0.000000E+00
  1.000000E+05,   1.500000E+05,   1.250000E+05,   1.285951E+05,   0.000000E+00
  1.500000E+05,   2.000000E+05,   1.750000E+05,   4.576397E+04,   0.000000E+00
  2.000000E+05,   3.000000E+05,   2.500000E+05,   1.622096E+04,   0.000000E+00
  3.000000E+05,   4.000000E+05,   0.000000E+00,  -1.455282E+03,   0.000000E+00
  4.000000E+05,   5.000000E+05,   4.500000E+05,   5.203263E+02,   0.000000E+00
  5.000000E+05,   8.000000E+05,   6.500000E+05,   4.771373E+01,   0.000000E+00
  8.000000E+05,   1.000000E+06,   0.000000E+00,   0.000000E+00,   0.000000E+00
'End of File'
