'*',    13,     3,     4,     0,     5,     5,    46,     2
'OMNIDIRECTIONAL FLUENCE ANALYSIS'
'MULASSIS ml-v01-19'
'geant4-09-02-ref-00 (19-December-2008)'
'FLU_BDY', 1, 2, ' '
'FLU_PAR, -1, proton  '
'FLU_AMN', 1, 0., 'deg'
'FLU_AMX', 1, 90., 'deg'
'Elo','keV', 1, ' Lower edge of energy    bin '
'Eup','keV', 1, ' Upper edge of energy    bin '
'Emean','keV', 1, ' Mean energy of bin '
'Value','particles/cm2/bin',1,             'Fluence/flux'
'Error','particles/cm2/bin',1,'Error in   fluence/flux'
  0.000000E+00,   4.000000E+01,   2.000000E+01,   2.342413E+06,   0.000000E+00
  4.000000E+01,   1.000000E+02,   7.000000E+01,   3.513619E+06,   0.000000E+00
  1.000000E+02,   2.000000E+02,   1.500000E+02,   5.856032E+06,   0.000000E+00
  2.000000E+02,   3.000000E+02,   2.500000E+02,   6.323276E+06,   0.000000E+00
  3.000000E+02,   4.000000E+02,   3.500000E+02,   7.200139E+06,   0.000000E+00
  4.000000E+02,   5.000000E+02,   4.500000E+02,   7.990457E+06,   0.000000E+00
  5.000000E+02,   6.000000E+02,   5.500000E+02,   9.304422E+06,   0.000000E+00
  6.000000E+02,   7.000000E+02,   6.500000E+02,   9.711175E+06,   0.000000E+00
  7.000000E+02,   8.000000E+02,   7.500000E+02,   1.122911E+07,   0.000000E+00
  8.000000E+02,   1.000000E+03,   9.000000E+02,   2.448078E+07,   0.000000E+00
  1.000000E+03,   1.250000E+03,   1.125000E+03,   3.659766E+07,   0.000000E+00
  1.250000E+03,   1.500000E+03,   1.375000E+03,   4.281866E+07,   0.000000E+00
  1.500000E+03,   1.750000E+03,   1.625000E+03,   4.888430E+07,   0.000000E+00
  1.750000E+03,   2.000000E+03,   1.875000E+03,   5.646074E+07,   0.000000E+00
  2.000000E+03,   2.250000E+03,   2.125000E+03,   6.439539E+07,   0.000000E+00
  2.250000E+03,   2.500000E+03,   2.375000E+03,   7.240308E+07,   0.000000E+00
  2.500000E+03,   2.750000E+03,   2.625000E+03,   8.239204E+07,   0.000000E+00
  2.750000E+03,   3.000000E+03,   2.875000E+03,   9.373247E+07,   0.000000E+00
  3.000000E+03,   3.250000E+03,   3.125000E+03,   1.073622E+08,   0.000000E+00
  3.250000E+03,   3.500000E+03,   3.375000E+03,   1.217924E+08,   0.000000E+00
  3.500000E+03,   3.750000E+03,   3.625000E+03,   1.284569E+08,   0.000000E+00
  3.750000E+03,   4.000000E+03,   3.875000E+03,   1.070734E+08,   0.000000E+00
  4.000000E+03,   4.250000E+03,   4.125000E+03,   8.498573E+07,   0.000000E+00
  4.250000E+03,   4.500000E+03,   4.375000E+03,   9.363829E+07,   0.000000E+00
  4.500000E+03,   4.750000E+03,   4.625000E+03,   1.016854E+08,   0.000000E+00
  4.750000E+03,   5.000000E+03,   4.875000E+03,   1.169162E+08,   0.000000E+00
  5.000000E+03,   5.500000E+03,   5.250000E+03,   2.018333E+08,   0.000000E+00
  5.500000E+03,   6.000000E+03,   5.750000E+03,   1.460714E+08,   0.000000E+00
  6.000000E+03,   6.500000E+03,   6.250000E+03,   1.782911E+08,   0.000000E+00
  6.500000E+03,   7.000000E+03,   6.750000E+03,   1.708824E+08,   0.000000E+00
  7.000000E+03,   1.000000E+04,   8.500000E+03,   8.889675E+08,   0.000000E+00
  1.000000E+04,   2.000000E+04,   1.500000E+04,   2.969688E+09,   0.000000E+00
  2.000000E+04,   3.000000E+04,   2.500000E+04,   2.844397E+09,   0.000000E+00
  3.000000E+04,   4.000000E+04,   3.500000E+04,   2.209725E+09,   0.000000E+00
  4.000000E+04,   5.000000E+04,   4.500000E+04,   2.193680E+09,   0.000000E+00
  5.000000E+04,   6.000000E+04,   5.500000E+04,   1.889495E+09,   0.000000E+00
  6.000000E+04,   7.000000E+04,   6.500000E+04,   2.338549E+09,   0.000000E+00
  7.000000E+04,   8.000000E+04,   7.500000E+04,   1.656294E+09,   0.000000E+00
  8.000000E+04,   1.000000E+05,   9.000000E+04,   3.031285E+09,   0.000000E+00
  1.000000E+05,   1.500000E+05,   1.250000E+05,   4.934166E+09,   0.000000E+00
  1.500000E+05,   2.000000E+05,   1.750000E+05,   2.579928E+09,   0.000000E+00
  2.000000E+05,   3.000000E+05,   2.500000E+05,   2.519647E+09,   0.000000E+00
  3.000000E+05,   4.000000E+05,   3.500000E+05,   7.054869E+08,   0.000000E+00
  4.000000E+05,   5.000000E+05,   4.500000E+05,   2.270311E+06,   0.000000E+00
  5.000000E+05,   8.000000E+05,   6.500000E+05,   9.319184E+05,   0.000000E+00
  8.000000E+05,   1.000000E+06,   0.000000E+00,   0.000000E+00,   0.000000E+00
'End of Block'
'*',    13,     3,     4,     0,     5,     5,    46,     1
'OMNIDIRECTIONAL FLUENCE ANALYSIS'
'MULASSIS ml-v01-19'
'geant4-09-02-ref-00 (19-December-2008)'
'FLU_BDY', 1, 2, ' '
'FLU_PAR, -1, e-      '
'FLU_AMN', 1, 0., 'deg'
'FLU_AMX', 1, 90., 'deg'
'Elo','keV', 1, ' Lower edge of energy    bin '
'Eup','keV', 1, ' Upper edge of energy    bin '
'Emean','keV', 1, ' Mean energy of bin '
'Value','particles/cm2/bin',1,             'Fluence/flux'
'Error','particles/cm2/bin',1,'Error in   fluence/flux'
  0.000000E+00,   4.000000E+01,   2.000000E+01,   6.507178E+10,   0.000000E+00
  4.000000E+01,   1.000000E+02,   7.000000E+01,   1.133740E+11,   0.000000E+00
  1.000000E+02,   2.000000E+02,   1.500000E+02,   2.266857E+11,   0.000000E+00
  2.000000E+02,   3.000000E+02,   2.500000E+02,   2.091710E+11,   0.000000E+00
  3.000000E+02,   4.000000E+02,   3.500000E+02,   1.525462E+11,   0.000000E+00
  4.000000E+02,   5.000000E+02,   4.500000E+02,   1.320093E+11,   0.000000E+00
  5.000000E+02,   6.000000E+02,   5.500000E+02,   1.073727E+11,   0.000000E+00
  6.000000E+02,   7.000000E+02,   6.500000E+02,   9.006468E+10,   0.000000E+00
  7.000000E+02,   8.000000E+02,   7.500000E+02,   7.118076E+10,   0.000000E+00
  8.000000E+02,   1.000000E+03,   9.000000E+02,   9.898392E+10,   0.000000E+00
  1.000000E+03,   1.250000E+03,   1.125000E+03,   7.790743E+10,   0.000000E+00
  1.250000E+03,   1.500000E+03,   1.375000E+03,   5.316964E+10,   0.000000E+00
  1.500000E+03,   1.750000E+03,   1.625000E+03,   3.722386E+10,   0.000000E+00
  1.750000E+03,   2.000000E+03,   1.875000E+03,   2.565670E+10,   0.000000E+00
  2.000000E+03,   2.250000E+03,   2.125000E+03,   1.863546E+10,   0.000000E+00
  2.250000E+03,   2.500000E+03,   2.375000E+03,   1.385986E+10,   0.000000E+00
  2.500000E+03,   2.750000E+03,   2.625000E+03,   8.868617E+09,   0.000000E+00
  2.750000E+03,   3.000000E+03,   2.875000E+03,   5.128584E+09,   0.000000E+00
  3.000000E+03,   3.250000E+03,   3.125000E+03,   2.644739E+09,   0.000000E+00
  3.250000E+03,   3.500000E+03,   3.375000E+03,   1.568424E+09,   0.000000E+00
  3.500000E+03,   3.750000E+03,   3.625000E+03,   8.368165E+08,   0.000000E+00
  3.750000E+03,   4.000000E+03,   3.875000E+03,   4.832954E+08,   0.000000E+00
  4.000000E+03,   4.250000E+03,   4.125000E+03,   2.426498E+08,   0.000000E+00
  4.250000E+03,   4.500000E+03,   4.375000E+03,   1.236430E+08,   0.000000E+00
  4.500000E+03,   4.750000E+03,   4.625000E+03,   6.045997E+07,   0.000000E+00
  4.750000E+03,   5.000000E+03,   4.875000E+03,   3.013166E+07,   0.000000E+00
  5.000000E+03,   5.500000E+03,   5.250000E+03,   1.876282E+07,   0.000000E+00
  5.500000E+03,   6.000000E+03,   5.750000E+03,   2.653692E+06,   0.000000E+00
  6.000000E+03,   6.500000E+03,   6.250000E+03,   3.411276E+04,   0.000000E+00
  6.500000E+03,   7.000000E+03,   6.750000E+03,   3.411276E+04,   0.000000E+00
  7.000000E+03,   1.000000E+04,   8.500000E+03,   1.950471E+05,   0.000000E+00
  1.000000E+04,   2.000000E+04,   1.500000E+04,   3.859325E+05,   0.000000E+00
  2.000000E+04,   3.000000E+04,   2.500000E+04,   1.680278E+05,   0.000000E+00
  3.000000E+04,   4.000000E+04,   3.500000E+04,   9.098072E+04,   0.000000E+00
  4.000000E+04,   5.000000E+04,   4.500000E+04,   6.015840E+04,   0.000000E+00
  5.000000E+04,   6.000000E+04,   5.500000E+04,   4.445142E+04,   0.000000E+00
  6.000000E+04,   7.000000E+04,   6.500000E+04,   3.497071E+04,   0.000000E+00
  7.000000E+04,   8.000000E+04,   7.500000E+04,   2.695979E+04,   0.000000E+00
  8.000000E+04,   1.000000E+05,   9.000000E+04,   3.939131E+04,   0.000000E+00
  1.000000E+05,   1.500000E+05,   1.250000E+05,   5.121874E+04,   0.000000E+00
  1.500000E+05,   2.000000E+05,   1.750000E+05,   1.888752E+04,   0.000000E+00
  2.000000E+05,   3.000000E+05,   2.500000E+05,   8.898417E+03,   0.000000E+00
  3.000000E+05,   4.000000E+05,   3.500000E+05,   1.281470E+03,   0.000000E+00
  4.000000E+05,   5.000000E+05,   4.500000E+05,   6.937986E+00,   0.000000E+00
  5.000000E+05,   8.000000E+05,   6.500000E+05,   8.991274E-01,   0.000000E+00
  8.000000E+05,   1.000000E+06,   0.000000E+00,   0.000000E+00,   0.000000E+00
'End of Block'
'*',    13,     3,     4,     0,     5,     5,    46,    -1
'OMNIDIRECTIONAL FLUENCE ANALYSIS'
'MULASSIS ml-v01-19'
'geant4-09-02-ref-00 (19-December-2008)'
'FLU_BDY', 1, 2, ' '
'FLU_PAR, -1, neutron '
'FLU_AMN', 1, 0., 'deg'
'FLU_AMX', 1, 90., 'deg'
'Elo','keV', 1, ' Lower edge of energy    bin '
'Eup','keV', 1, ' Upper edge of energy    bin '
'Emean','keV', 1, ' Mean energy of bin '
'Value','particles/cm2/bin',1,             'Fluence/flux'
'Error','particles/cm2/bin',1,'Error in   fluence/flux'
  0.000000E+00,   4.000000E+01,   2.000000E+01,   3.975634E+05,   0.000000E+00
  4.000000E+01,   1.000000E+02,   7.000000E+01,   5.963450E+05,   0.000000E+00
  1.000000E+02,   2.000000E+02,   1.500000E+02,   9.939084E+05,   0.000000E+00
  2.000000E+02,   3.000000E+02,   2.500000E+02,   9.938236E+05,   0.000000E+00
  3.000000E+02,   4.000000E+02,   3.500000E+02,   9.936644E+05,   0.000000E+00
  4.000000E+02,   5.000000E+02,   4.500000E+02,   9.927280E+05,   0.000000E+00
  5.000000E+02,   6.000000E+02,   5.500000E+02,   9.871980E+05,   0.000000E+00
  6.000000E+02,   7.000000E+02,   6.500000E+02,   9.771971E+05,   0.000000E+00
  7.000000E+02,   8.000000E+02,   7.500000E+02,   9.643489E+05,   0.000000E+00
  8.000000E+02,   1.000000E+03,   9.000000E+02,   1.885172E+06,   0.000000E+00
  1.000000E+03,   1.250000E+03,   1.125000E+03,   2.266006E+06,   0.000000E+00
  1.250000E+03,   1.500000E+03,   1.375000E+03,   2.158051E+06,   0.000000E+00
  1.500000E+03,   1.750000E+03,   1.625000E+03,   2.055159E+06,   0.000000E+00
  1.750000E+03,   2.000000E+03,   1.875000E+03,   1.957856E+06,   0.000000E+00
  2.000000E+03,   2.250000E+03,   2.125000E+03,   1.874631E+06,   0.000000E+00
  2.250000E+03,   2.500000E+03,   2.375000E+03,   1.806642E+06,   0.000000E+00
  2.500000E+03,   2.750000E+03,   2.625000E+03,   1.741957E+06,   0.000000E+00
  2.750000E+03,   3.000000E+03,   2.875000E+03,   1.680788E+06,   0.000000E+00
  3.000000E+03,   3.250000E+03,   3.125000E+03,   1.627764E+06,   0.000000E+00
  3.250000E+03,   3.500000E+03,   3.375000E+03,   1.569333E+06,   0.000000E+00
  3.500000E+03,   3.750000E+03,   3.625000E+03,   1.519725E+06,   0.000000E+00
  3.750000E+03,   4.000000E+03,   3.875000E+03,   1.470598E+06,   0.000000E+00
  4.000000E+03,   4.250000E+03,   4.125000E+03,   1.422775E+06,   0.000000E+00
  4.250000E+03,   4.500000E+03,   4.375000E+03,   1.365631E+06,   0.000000E+00
  4.500000E+03,   4.750000E+03,   4.625000E+03,   1.334055E+06,   0.000000E+00
  4.750000E+03,   5.000000E+03,   4.875000E+03,   1.273635E+06,   0.000000E+00
  5.000000E+03,   5.500000E+03,   5.250000E+03,   2.436642E+06,   0.000000E+00
  5.500000E+03,   6.000000E+03,   5.750000E+03,   2.277381E+06,   0.000000E+00
  6.000000E+03,   6.500000E+03,   6.250000E+03,   2.119344E+06,   0.000000E+00
  6.500000E+03,   7.000000E+03,   6.750000E+03,   1.949431E+06,   0.000000E+00
  7.000000E+03,   1.000000E+04,   8.500000E+03,   9.346263E+06,   0.000000E+00
  1.000000E+04,   2.000000E+04,   1.500000E+04,   1.682811E+07,   0.000000E+00
  2.000000E+04,   3.000000E+04,   2.500000E+04,   8.958220E+06,   0.000000E+00
  3.000000E+04,   4.000000E+04,   3.500000E+04,   5.599047E+06,   0.000000E+00
  4.000000E+04,   5.000000E+04,   4.500000E+04,   4.033387E+06,   0.000000E+00
  5.000000E+04,   6.000000E+04,   5.500000E+04,   3.037141E+06,   0.000000E+00
  6.000000E+04,   7.000000E+04,   6.500000E+04,   2.452371E+06,   0.000000E+00
  7.000000E+04,   8.000000E+04,   7.500000E+04,   2.017391E+06,   0.000000E+00
  8.000000E+04,   1.000000E+05,   9.000000E+04,   2.997224E+06,   0.000000E+00
  1.000000E+05,   1.500000E+05,   1.250000E+05,   4.332484E+06,   0.000000E+00
  1.500000E+05,   2.000000E+05,   1.750000E+05,   1.974994E+06,   0.000000E+00
  2.000000E+05,   3.000000E+05,   2.500000E+05,   1.013454E+06,   0.000000E+00
  3.000000E+05,   4.000000E+05,   3.500000E+05,   1.116156E+05,   0.000000E+00
  4.000000E+05,   5.000000E+05,   4.500000E+05,   5.203263E+02,   0.000000E+00
  5.000000E+05,   8.000000E+05,   6.500000E+05,   4.771373E+01,   0.000000E+00
  8.000000E+05,   1.000000E+06,   0.000000E+00,   0.000000E+00,   0.000000E+00
'End of File'
