'*',    13,     3,     4,     0,     5,     5,    46,     2
'OMNIDIRECTIONAL FLUENCE ANALYSIS'
'MULASSIS ml-v01-19'
'geant4-09-02-ref-00 (19-December-2008)'
'FLU_BDY', 1, 2, ' '
'FLU_PAR, -1, proton  '
'FLU_AMN', 1, 0., 'deg'
'FLU_AMX', 1, 90., 'deg'
'Elo','keV', 1, ' Lower edge of energy    bin '
'Eup','keV', 1, ' Upper edge of energy    bin '
'Emean','keV', 1, ' Mean energy of bin '
'Value','particles/cm2/bin',1,             'Fluence/flux'
'Error','particles/cm2/bin',1,'Error in   fluence/flux'
  0.000000E+00,   4.000000E+01,   2.000000E+01,   1.032781E+04,   0.000000E+00
  4.000000E+01,   1.000000E+02,   7.000000E+01,   1.549171E+04,   0.000000E+00
  1.000000E+02,   2.000000E+02,   1.500000E+02,   2.581952E+04,   0.000000E+00
  2.000000E+02,   3.000000E+02,   2.500000E+02,   2.581952E+04,   0.000000E+00
  3.000000E+02,   4.000000E+02,   3.500000E+02,   2.581952E+04,   0.000000E+00
  4.000000E+02,   5.000000E+02,   4.500000E+02,   2.581952E+04,   0.000000E+00
  5.000000E+02,   6.000000E+02,   5.500000E+02,   2.581952E+04,   0.000000E+00
  6.000000E+02,   7.000000E+02,   6.500000E+02,   2.581952E+04,   0.000000E+00
  7.000000E+02,   8.000000E+02,   7.500000E+02,   2.581952E+04,   0.000000E+00
  8.000000E+02,   1.000000E+03,   9.000000E+02,   5.163904E+04,   0.000000E+00
  1.000000E+03,   1.250000E+03,   1.125000E+03,   6.454880E+04,   0.000000E+00
  1.250000E+03,   1.500000E+03,   1.375000E+03,   6.454880E+04,   0.000000E+00
  1.500000E+03,   1.750000E+03,   1.625000E+03,   6.454880E+04,   0.000000E+00
  1.750000E+03,   2.000000E+03,   1.875000E+03,   6.454880E+04,   0.000000E+00
  2.000000E+03,   2.250000E+03,   2.125000E+03,   6.788861E+04,   0.000000E+00
  2.250000E+03,   2.500000E+03,   2.375000E+03,   8.776563E+04,   0.000000E+00
  2.500000E+03,   2.750000E+03,   2.625000E+03,   8.776563E+04,   0.000000E+00
  2.750000E+03,   3.000000E+03,   2.875000E+03,   8.776563E+04,   0.000000E+00
  3.000000E+03,   3.250000E+03,   3.125000E+03,   1.000244E+05,   0.000000E+00
  3.250000E+03,   3.500000E+03,   3.375000E+03,   1.059238E+05,   0.000000E+00
  3.500000E+03,   3.750000E+03,   3.625000E+03,   1.059238E+05,   0.000000E+00
  3.750000E+03,   4.000000E+03,   3.875000E+03,   1.107234E+05,   0.000000E+00
  4.000000E+03,   4.250000E+03,   4.125000E+03,   1.192198E+05,   0.000000E+00
  4.250000E+03,   4.500000E+03,   4.375000E+03,   1.250886E+05,   0.000000E+00
  4.500000E+03,   4.750000E+03,   4.625000E+03,   1.397467E+05,   0.000000E+00
  4.750000E+03,   5.000000E+03,   4.875000E+03,   1.471092E+05,   0.000000E+00
  5.000000E+03,   5.500000E+03,   5.250000E+03,   2.942185E+05,   0.000000E+00
  5.500000E+03,   6.000000E+03,   5.750000E+03,   3.001168E+05,   0.000000E+00
  6.000000E+03,   6.500000E+03,   6.250000E+03,   3.236866E+05,   0.000000E+00
  6.500000E+03,   7.000000E+03,   6.750000E+03,   3.678785E+05,   0.000000E+00
  7.000000E+03,   1.000000E+04,   8.500000E+03,   2.564712E+06,   0.000000E+00
  1.000000E+04,   2.000000E+04,   1.500000E+04,   1.405442E+07,   0.000000E+00
  2.000000E+04,   3.000000E+04,   2.500000E+04,   2.482039E+07,   0.000000E+00
  3.000000E+04,   4.000000E+04,   3.500000E+04,   2.616242E+07,   0.000000E+00
  4.000000E+04,   5.000000E+04,   4.500000E+04,   2.656975E+07,   0.000000E+00
  5.000000E+04,   6.000000E+04,   5.500000E+04,   2.229594E+07,   0.000000E+00
  6.000000E+04,   7.000000E+04,   6.500000E+04,   1.658027E+07,   0.000000E+00
  7.000000E+04,   8.000000E+04,   7.500000E+04,   1.389077E+07,   0.000000E+00
  8.000000E+04,   1.000000E+05,   9.000000E+04,   2.147894E+07,   0.000000E+00
  1.000000E+05,   1.500000E+05,   1.250000E+05,   3.728061E+07,   0.000000E+00
  1.500000E+05,   2.000000E+05,   1.750000E+05,   2.263715E+07,   0.000000E+00
  2.000000E+05,   3.000000E+05,   2.500000E+05,   2.128114E+07,   0.000000E+00
  3.000000E+05,   4.000000E+05,   3.500000E+05,   5.799803E+06,   0.000000E+00
  4.000000E+05,   5.000000E+05,   4.500000E+05,   2.062341E+06,   0.000000E+00
  5.000000E+05,   8.000000E+05,   6.500000E+05,   4.643483E+05,   0.000000E+00
  8.000000E+05,   1.000000E+06,   0.000000E+00,   0.000000E+00,   0.000000E+00
'End of Block'
'*',    13,     3,     4,     0,     5,     5,    46,     1
'OMNIDIRECTIONAL FLUENCE ANALYSIS'
'MULASSIS ml-v01-19'
'geant4-09-02-ref-00 (19-December-2008)'
'FLU_BDY', 1, 2, ' '
'FLU_PAR, -1, e-      '
'FLU_AMN', 1, 0., 'deg'
'FLU_AMX', 1, 90., 'deg'
'Elo','keV', 1, ' Lower edge of energy    bin '
'Eup','keV', 1, ' Upper edge of energy    bin '
'Emean','keV', 1, ' Mean energy of bin '
'Value','particles/cm2/bin',1,             'Fluence/flux'
'Error','particles/cm2/bin',1,'Error in   fluence/flux'
  0.000000E+00,   4.000000E+01,   2.000000E+01,   1.219713E+07,   0.000000E+00
  4.000000E+01,   1.000000E+02,   7.000000E+01,   5.939678E+06,   0.000000E+00
  1.000000E+02,   2.000000E+02,   1.500000E+02,   3.166947E+06,   0.000000E+00
  2.000000E+02,   3.000000E+02,   2.500000E+02,   1.034581E+06,   0.000000E+00
  3.000000E+02,   4.000000E+02,   3.500000E+02,   4.159748E+05,   0.000000E+00
  4.000000E+02,   5.000000E+02,   4.500000E+02,   1.995291E+05,   0.000000E+00
  5.000000E+02,   6.000000E+02,   5.500000E+02,   9.303754E+04,   0.000000E+00
  6.000000E+02,   7.000000E+02,   6.500000E+02,   4.957831E+04,   0.000000E+00
  7.000000E+02,   8.000000E+02,   7.500000E+02,   2.759906E+04,   0.000000E+00
  8.000000E+02,   1.000000E+03,   9.000000E+02,   2.833056E+04,   0.000000E+00
  1.000000E+03,   1.250000E+03,   1.125000E+03,   1.503856E+04,   0.000000E+00
  1.250000E+03,   1.500000E+03,   1.375000E+03,   7.331747E+03,   0.000000E+00
  1.500000E+03,   1.750000E+03,   1.625000E+03,   3.595314E+03,   0.000000E+00
  1.750000E+03,   2.000000E+03,   1.875000E+03,   2.475965E+03,   0.000000E+00
  2.000000E+03,   2.250000E+03,   2.125000E+03,   1.850573E+03,   0.000000E+00
  2.250000E+03,   2.500000E+03,   2.375000E+03,   1.472239E+03,   0.000000E+00
  2.500000E+03,   2.750000E+03,   2.625000E+03,   1.164978E+03,   0.000000E+00
  2.750000E+03,   3.000000E+03,   2.875000E+03,   1.024787E+03,   0.000000E+00
  3.000000E+03,   3.250000E+03,   3.125000E+03,   9.548727E+02,   0.000000E+00
  3.250000E+03,   3.500000E+03,   3.375000E+03,   8.751051E+02,   0.000000E+00
  3.500000E+03,   3.750000E+03,   3.625000E+03,   8.133857E+02,   0.000000E+00
  3.750000E+03,   4.000000E+03,   3.875000E+03,   8.133857E+02,   0.000000E+00
  4.000000E+03,   4.250000E+03,   4.125000E+03,   8.133857E+02,   0.000000E+00
  4.250000E+03,   4.500000E+03,   4.375000E+03,   8.133857E+02,   0.000000E+00
  4.500000E+03,   4.750000E+03,   4.625000E+03,   8.133857E+02,   0.000000E+00
  4.750000E+03,   5.000000E+03,   4.875000E+03,   8.133857E+02,   0.000000E+00
  5.000000E+03,   5.500000E+03,   5.250000E+03,   1.626771E+03,   0.000000E+00
  5.500000E+03,   6.000000E+03,   5.750000E+03,   1.626771E+03,   0.000000E+00
  6.000000E+03,   6.500000E+03,   6.250000E+03,   1.626771E+03,   0.000000E+00
  6.500000E+03,   7.000000E+03,   6.750000E+03,   1.626771E+03,   0.000000E+00
  7.000000E+03,   1.000000E+04,   8.500000E+03,   9.760629E+03,   0.000000E+00
  1.000000E+04,   2.000000E+04,   1.500000E+04,   3.253543E+04,   0.000000E+00
  2.000000E+04,   3.000000E+04,   2.500000E+04,   3.253543E+04,   0.000000E+00
  3.000000E+04,   4.000000E+04,   3.500000E+04,   3.253543E+04,   0.000000E+00
  4.000000E+04,   5.000000E+04,   4.500000E+04,   3.253543E+04,   0.000000E+00
  5.000000E+04,   6.000000E+04,   5.500000E+04,   3.253543E+04,   0.000000E+00
  6.000000E+04,   7.000000E+04,   6.500000E+04,   3.253543E+04,   0.000000E+00
  7.000000E+04,   8.000000E+04,   7.500000E+04,   3.068140E+04,   0.000000E+00
  8.000000E+04,   1.000000E+05,   9.000000E+04,   3.902553E+04,   0.000000E+00
  1.000000E+05,   1.500000E+05,   1.250000E+05,   4.928824E+04,   0.000000E+00
  1.500000E+05,   2.000000E+05,   1.750000E+05,   1.712519E+04,   0.000000E+00
  2.000000E+05,   3.000000E+05,   2.500000E+05,   1.010488E+04,   0.000000E+00
  3.000000E+05,   4.000000E+05,   3.500000E+05,   2.923146E+03,   0.000000E+00
  4.000000E+05,   5.000000E+05,   4.500000E+05,   8.873668E+02,   0.000000E+00
  5.000000E+05,   8.000000E+05,   6.500000E+05,   1.160897E+02,   0.000000E+00
  8.000000E+05,   1.000000E+06,   0.000000E+00,   0.000000E+00,   0.000000E+00
'End of Block'
'*',    13,     3,     4,     0,     5,     5,    46,    -1
'OMNIDIRECTIONAL FLUENCE ANALYSIS'
'MULASSIS ml-v01-19'
'geant4-09-02-ref-00 (19-December-2008)'
'FLU_BDY', 1, 2, ' '
'FLU_PAR, -1, neutron '
'FLU_AMN', 1, 0., 'deg'
'FLU_AMX', 1, 90., 'deg'
'Elo','keV', 1, ' Lower edge of energy    bin '
'Eup','keV', 1, ' Upper edge of energy    bin '
'Emean','keV', 1, ' Mean energy of bin '
'Value','particles/cm2/bin',1,             'Fluence/flux'
'Error','particles/cm2/bin',1,'Error in   fluence/flux'
  0.000000E+00,   4.000000E+01,   2.000000E+01,   1.140891E+05,   0.000000E+00
  4.000000E+01,   1.000000E+02,   7.000000E+01,   1.711336E+05,   0.000000E+00
  1.000000E+02,   2.000000E+02,   1.500000E+02,   2.852226E+05,   0.000000E+00
  2.000000E+02,   3.000000E+02,   2.500000E+02,   2.852226E+05,   0.000000E+00
  3.000000E+02,   4.000000E+02,   3.500000E+02,   2.852226E+05,   0.000000E+00
  4.000000E+02,   5.000000E+02,   4.500000E+02,   2.852226E+05,   0.000000E+00
  5.000000E+02,   6.000000E+02,   5.500000E+02,   2.852226E+05,   0.000000E+00
  6.000000E+02,   7.000000E+02,   6.500000E+02,   2.852226E+05,   0.000000E+00
  7.000000E+02,   8.000000E+02,   7.500000E+02,   2.852226E+05,   0.000000E+00
  8.000000E+02,   1.000000E+03,   9.000000E+02,   5.704453E+05,   0.000000E+00
  1.000000E+03,   1.250000E+03,   1.125000E+03,   7.130566E+05,   0.000000E+00
  1.250000E+03,   1.500000E+03,   1.375000E+03,   7.130566E+05,   0.000000E+00
  1.500000E+03,   1.750000E+03,   1.625000E+03,   7.130566E+05,   0.000000E+00
  1.750000E+03,   2.000000E+03,   1.875000E+03,   7.130566E+05,   0.000000E+00
  2.000000E+03,   2.250000E+03,   2.125000E+03,   7.018652E+05,   0.000000E+00
  2.250000E+03,   2.500000E+03,   2.375000E+03,   6.352595E+05,   0.000000E+00
  2.500000E+03,   2.750000E+03,   2.625000E+03,   6.352595E+05,   0.000000E+00
  2.750000E+03,   3.000000E+03,   2.875000E+03,   6.352595E+05,   0.000000E+00
  3.000000E+03,   3.250000E+03,   3.125000E+03,   5.874754E+05,   0.000000E+00
  3.250000E+03,   3.500000E+03,   3.375000E+03,   5.644797E+05,   0.000000E+00
  3.500000E+03,   3.750000E+03,   3.625000E+03,   5.644797E+05,   0.000000E+00
  3.750000E+03,   4.000000E+03,   3.875000E+03,   5.411676E+05,   0.000000E+00
  4.000000E+03,   4.250000E+03,   4.125000E+03,   4.999001E+05,   0.000000E+00
  4.250000E+03,   4.500000E+03,   4.375000E+03,   4.883678E+05,   0.000000E+00
  4.500000E+03,   4.750000E+03,   4.625000E+03,   4.590347E+05,   0.000000E+00
  4.750000E+03,   5.000000E+03,   4.875000E+03,   4.141492E+05,   0.000000E+00
  5.000000E+03,   5.500000E+03,   5.250000E+03,   8.282985E+05,   0.000000E+00
  5.500000E+03,   6.000000E+03,   5.750000E+03,   7.817318E+05,   0.000000E+00
  6.000000E+03,   6.500000E+03,   6.250000E+03,   7.281200E+05,   0.000000E+00
  6.500000E+03,   7.000000E+03,   6.750000E+03,   6.389408E+05,   0.000000E+00
  7.000000E+03,   1.000000E+04,   8.500000E+03,   3.158161E+06,   0.000000E+00
  1.000000E+04,   2.000000E+04,   1.500000E+04,   5.679244E+06,   0.000000E+00
  2.000000E+04,   3.000000E+04,   2.500000E+04,   3.066500E+06,   0.000000E+00
  3.000000E+04,   4.000000E+04,   3.500000E+04,   2.085599E+06,   0.000000E+00
  4.000000E+04,   5.000000E+04,   4.500000E+04,   1.478901E+06,   0.000000E+00
  5.000000E+04,   6.000000E+04,   5.500000E+04,   1.109896E+06,   0.000000E+00
  6.000000E+04,   7.000000E+04,   6.500000E+04,   8.453731E+05,   0.000000E+00
  7.000000E+04,   8.000000E+04,   7.500000E+04,   6.646612E+05,   0.000000E+00
  8.000000E+04,   1.000000E+05,   9.000000E+04,   8.896997E+05,   0.000000E+00
  1.000000E+05,   1.500000E+05,   1.250000E+05,   1.145418E+06,   0.000000E+00
  1.500000E+05,   2.000000E+05,   1.750000E+05,   4.869955E+05,   0.000000E+00
  2.000000E+05,   3.000000E+05,   2.500000E+05,   2.992972E+05,   0.000000E+00
  3.000000E+05,   4.000000E+05,   3.500000E+05,   5.299764E+04,   0.000000E+00
  4.000000E+05,   5.000000E+05,   4.500000E+05,   1.185398E+04,   0.000000E+00
  5.000000E+05,   8.000000E+05,   6.500000E+05,   5.543416E+02,   0.000000E+00
  8.000000E+05,   1.000000E+06,   0.000000E+00,   0.000000E+00,   0.000000E+00
'End of File'
