'*',    13,     3,     4,     0,     5,     5,    46,     2
'OMNIDIRECTIONAL FLUENCE ANALYSIS'
'MULASSIS ml-v01-19'
'geant4-09-02-ref-00 (19-December-2008)'
'FLU_BDY', 1, 2, ' '
'FLU_PAR, -1, proton  '
'FLU_AMN', 1, 0., 'deg'
'FLU_AMX', 1, 90., 'deg'
'Elo','keV', 1, ' Lower edge of energy    bin '
'Eup','keV', 1, ' Upper edge of energy    bin '
'Emean','keV', 1, ' Mean energy of bin '
'Value','particles/cm2/bin',1,             'Fluence/flux'
'Error','particles/cm2/bin',1,'Error in   fluence/flux'
  0.000000E+00,   4.000000E+01,   2.000000E+01,   7.781409E+04,   0.000000E+00
  4.000000E+01,   1.000000E+02,   7.000000E+01,   1.167211E+05,   0.000000E+00
  1.000000E+02,   2.000000E+02,   1.500000E+02,   1.945352E+05,   0.000000E+00
  2.000000E+02,   3.000000E+02,   2.500000E+02,   1.945352E+05,   0.000000E+00
  3.000000E+02,   4.000000E+02,   3.500000E+02,   1.945352E+05,   0.000000E+00
  4.000000E+02,   5.000000E+02,   4.500000E+02,   1.945352E+05,   0.000000E+00
  5.000000E+02,   6.000000E+02,   5.500000E+02,   1.945352E+05,   0.000000E+00
  6.000000E+02,   7.000000E+02,   6.500000E+02,   1.945352E+05,   0.000000E+00
  7.000000E+02,   8.000000E+02,   7.500000E+02,   1.945352E+05,   0.000000E+00
  8.000000E+02,   1.000000E+03,   9.000000E+02,   3.890704E+05,   0.000000E+00
  1.000000E+03,   1.250000E+03,   1.125000E+03,   4.863381E+05,   0.000000E+00
  1.250000E+03,   1.500000E+03,   1.375000E+03,   4.863381E+05,   0.000000E+00
  1.500000E+03,   1.750000E+03,   1.625000E+03,   4.863381E+05,   0.000000E+00
  1.750000E+03,   2.000000E+03,   1.875000E+03,   4.863381E+05,   0.000000E+00
  2.000000E+03,   2.250000E+03,   2.125000E+03,   5.011428E+05,   0.000000E+00
  2.250000E+03,   2.500000E+03,   2.375000E+03,   5.892537E+05,   0.000000E+00
  2.500000E+03,   2.750000E+03,   2.625000E+03,   5.892537E+05,   0.000000E+00
  2.750000E+03,   3.000000E+03,   2.875000E+03,   5.892537E+05,   0.000000E+00
  3.000000E+03,   3.250000E+03,   3.125000E+03,   6.507073E+05,   0.000000E+00
  3.250000E+03,   3.500000E+03,   3.375000E+03,   6.802814E+05,   0.000000E+00
  3.500000E+03,   3.750000E+03,   3.625000E+03,   6.802814E+05,   0.000000E+00
  3.750000E+03,   4.000000E+03,   3.875000E+03,   7.082187E+05,   0.000000E+00
  4.000000E+03,   4.250000E+03,   4.125000E+03,   7.576735E+05,   0.000000E+00
  4.250000E+03,   4.500000E+03,   4.375000E+03,   7.836889E+05,   0.000000E+00
  4.500000E+03,   4.750000E+03,   4.625000E+03,   8.494080E+05,   0.000000E+00
  4.750000E+03,   5.000000E+03,   4.875000E+03,   9.247004E+05,   0.000000E+00
  5.000000E+03,   5.500000E+03,   5.250000E+03,   1.849401E+06,   0.000000E+00
  5.500000E+03,   6.000000E+03,   5.750000E+03,   1.917138E+06,   0.000000E+00
  6.000000E+03,   6.500000E+03,   6.250000E+03,   2.046576E+06,   0.000000E+00
  6.500000E+03,   7.000000E+03,   6.750000E+03,   2.284007E+06,   0.000000E+00
  7.000000E+03,   1.000000E+04,   8.500000E+03,   1.580816E+07,   0.000000E+00
  1.000000E+04,   2.000000E+04,   1.500000E+04,   8.504939E+07,   0.000000E+00
  2.000000E+04,   3.000000E+04,   2.500000E+04,   1.445319E+08,   0.000000E+00
  3.000000E+04,   4.000000E+04,   3.500000E+04,   1.645930E+08,   0.000000E+00
  4.000000E+04,   5.000000E+04,   4.500000E+04,   1.835383E+08,   0.000000E+00
  5.000000E+04,   6.000000E+04,   5.500000E+04,   1.817987E+08,   0.000000E+00
  6.000000E+04,   7.000000E+04,   6.500000E+04,   1.729107E+08,   0.000000E+00
  7.000000E+04,   8.000000E+04,   7.500000E+04,   1.619765E+08,   0.000000E+00
  8.000000E+04,   1.000000E+05,   9.000000E+04,   2.752534E+08,   0.000000E+00
  1.000000E+05,   1.500000E+05,   1.250000E+05,   6.086163E+08,   0.000000E+00
  1.500000E+05,   2.000000E+05,   1.750000E+05,   4.960050E+08,   0.000000E+00
  2.000000E+05,   3.000000E+05,   2.500000E+05,   4.572824E+08,   0.000000E+00
  3.000000E+05,   4.000000E+05,   3.500000E+05,   1.036415E+08,   0.000000E+00
  4.000000E+05,   5.000000E+05,   4.500000E+05,   5.136657E+05,   0.000000E+00
  5.000000E+05,   8.000000E+05,   6.500000E+05,   1.173810E+05,   0.000000E+00
  8.000000E+05,   1.000000E+06,   0.000000E+00,   0.000000E+00,   0.000000E+00
'End of Block'
'*',    13,     3,     4,     0,     5,     5,    46,     1
'OMNIDIRECTIONAL FLUENCE ANALYSIS'
'MULASSIS ml-v01-19'
'geant4-09-02-ref-00 (19-December-2008)'
'FLU_BDY', 1, 2, ' '
'FLU_PAR, -1, e-      '
'FLU_AMN', 1, 0., 'deg'
'FLU_AMX', 1, 90., 'deg'
'Elo','keV', 1, ' Lower edge of energy    bin '
'Eup','keV', 1, ' Upper edge of energy    bin '
'Emean','keV', 1, ' Mean energy of bin '
'Value','particles/cm2/bin',1,             'Fluence/flux'
'Error','particles/cm2/bin',1,'Error in   fluence/flux'
  0.000000E+00,   4.000000E+01,   2.000000E+01,   1.445931E+08,   0.000000E+00
  4.000000E+01,   1.000000E+02,   7.000000E+01,   9.233855E+07,   0.000000E+00
  1.000000E+02,   2.000000E+02,   1.500000E+02,   5.591163E+07,   0.000000E+00
  2.000000E+02,   3.000000E+02,   2.500000E+02,   1.997101E+07,   0.000000E+00
  3.000000E+02,   4.000000E+02,   3.500000E+02,   7.961026E+06,   0.000000E+00
  4.000000E+02,   5.000000E+02,   4.500000E+02,   3.540330E+06,   0.000000E+00
  5.000000E+02,   6.000000E+02,   5.500000E+02,   1.418916E+06,   0.000000E+00
  6.000000E+02,   7.000000E+02,   6.500000E+02,   6.878324E+05,   0.000000E+00
  7.000000E+02,   8.000000E+02,   7.500000E+02,   3.780060E+05,   0.000000E+00
  8.000000E+02,   1.000000E+03,   9.000000E+02,   3.663478E+05,   0.000000E+00
  1.000000E+03,   1.250000E+03,   1.125000E+03,   2.198698E+05,   0.000000E+00
  1.250000E+03,   1.500000E+03,   1.375000E+03,   1.133025E+05,   0.000000E+00
  1.500000E+03,   1.750000E+03,   1.625000E+03,   4.915579E+04,   0.000000E+00
  1.750000E+03,   2.000000E+03,   1.875000E+03,   3.024537E+04,   0.000000E+00
  2.000000E+03,   2.250000E+03,   2.125000E+03,   1.942058E+04,   0.000000E+00
  2.250000E+03,   2.500000E+03,   2.375000E+03,   1.372422E+04,   0.000000E+00
  2.500000E+03,   2.750000E+03,   2.625000E+03,   7.717942E+03,   0.000000E+00
  2.750000E+03,   3.000000E+03,   2.875000E+03,   7.671319E+03,   0.000000E+00
  3.000000E+03,   3.250000E+03,   3.125000E+03,   7.653999E+03,   0.000000E+00
  3.250000E+03,   3.500000E+03,   3.375000E+03,   7.633914E+03,   0.000000E+00
  3.500000E+03,   3.750000E+03,   3.625000E+03,   7.618312E+03,   0.000000E+00
  3.750000E+03,   4.000000E+03,   3.875000E+03,   7.618312E+03,   0.000000E+00
  4.000000E+03,   4.250000E+03,   4.125000E+03,   7.618312E+03,   0.000000E+00
  4.250000E+03,   4.500000E+03,   4.375000E+03,   7.618312E+03,   0.000000E+00
  4.500000E+03,   4.750000E+03,   4.625000E+03,   7.618312E+03,   0.000000E+00
  4.750000E+03,   5.000000E+03,   4.875000E+03,   7.618312E+03,   0.000000E+00
  5.000000E+03,   5.500000E+03,   5.250000E+03,   1.523662E+04,   0.000000E+00
  5.500000E+03,   6.000000E+03,   5.750000E+03,   1.523662E+04,   0.000000E+00
  6.000000E+03,   6.500000E+03,   6.250000E+03,   1.523662E+04,   0.000000E+00
  6.500000E+03,   7.000000E+03,   6.750000E+03,   1.523662E+04,   0.000000E+00
  7.000000E+03,   1.000000E+04,   8.500000E+03,   9.141975E+04,   0.000000E+00
  1.000000E+04,   2.000000E+04,   1.500000E+04,   3.047325E+05,   0.000000E+00
  2.000000E+04,   3.000000E+04,   2.500000E+04,   3.047325E+05,   0.000000E+00
  3.000000E+04,   4.000000E+04,   3.500000E+04,   3.047325E+05,   0.000000E+00
  4.000000E+04,   5.000000E+04,   4.500000E+04,   3.047325E+05,   0.000000E+00
  5.000000E+04,   6.000000E+04,   5.500000E+04,   3.047325E+05,   0.000000E+00
  6.000000E+04,   7.000000E+04,   6.500000E+04,   3.047325E+05,   0.000000E+00
  7.000000E+04,   8.000000E+04,   7.500000E+04,   2.965139E+05,   0.000000E+00
  8.000000E+04,   1.000000E+05,   9.000000E+04,   4.874021E+05,   0.000000E+00
  1.000000E+05,   1.500000E+05,   1.250000E+05,   7.964527E+05,   0.000000E+00
  1.500000E+05,   2.000000E+05,   1.750000E+05,   3.466290E+05,   0.000000E+00
  2.000000E+05,   3.000000E+05,   2.500000E+05,   1.892229E+05,   0.000000E+00
  3.000000E+05,   4.000000E+05,   3.500000E+05,   3.312834E+04,   0.000000E+00
  4.000000E+05,   5.000000E+05,   4.500000E+05,   2.225336E+02,   0.000000E+00
  5.000000E+05,   8.000000E+05,   6.500000E+05,   2.934592E+01,   0.000000E+00
  8.000000E+05,   1.000000E+06,   0.000000E+00,   0.000000E+00,   0.000000E+00
'End of Block'
'*',    13,     3,     4,     0,     5,     5,    46,    -1
'OMNIDIRECTIONAL FLUENCE ANALYSIS'
'MULASSIS ml-v01-19'
'geant4-09-02-ref-00 (19-December-2008)'
'FLU_BDY', 1, 2, ' '
'FLU_PAR, -1, neutron '
'FLU_AMN', 1, 0., 'deg'
'FLU_AMX', 1, 90., 'deg'
'Elo','keV', 1, ' Lower edge of energy    bin '
'Eup','keV', 1, ' Upper edge of energy    bin '
'Emean','keV', 1, ' Mean energy of bin '
'Value','particles/cm2/bin',1,             'Fluence/flux'
'Error','particles/cm2/bin',1,'Error in   fluence/flux'
  0.000000E+00,   4.000000E+01,   2.000000E+01,   9.958696E+05,   0.000000E+00
  4.000000E+01,   1.000000E+02,   7.000000E+01,   1.493804E+06,   0.000000E+00
  1.000000E+02,   2.000000E+02,   1.500000E+02,   2.489674E+06,   0.000000E+00
  2.000000E+02,   3.000000E+02,   2.500000E+02,   2.489674E+06,   0.000000E+00
  3.000000E+02,   4.000000E+02,   3.500000E+02,   2.489674E+06,   0.000000E+00
  4.000000E+02,   5.000000E+02,   4.500000E+02,   2.489674E+06,   0.000000E+00
  5.000000E+02,   6.000000E+02,   5.500000E+02,   2.489674E+06,   0.000000E+00
  6.000000E+02,   7.000000E+02,   6.500000E+02,   2.489674E+06,   0.000000E+00
  7.000000E+02,   8.000000E+02,   7.500000E+02,   2.489674E+06,   0.000000E+00
  8.000000E+02,   1.000000E+03,   9.000000E+02,   4.979348E+06,   0.000000E+00
  1.000000E+03,   1.250000E+03,   1.125000E+03,   6.224185E+06,   0.000000E+00
  1.250000E+03,   1.500000E+03,   1.375000E+03,   6.224185E+06,   0.000000E+00
  1.500000E+03,   1.750000E+03,   1.625000E+03,   6.224185E+06,   0.000000E+00
  1.750000E+03,   2.000000E+03,   1.875000E+03,   6.224185E+06,   0.000000E+00
  2.000000E+03,   2.250000E+03,   2.125000E+03,   6.174576E+06,   0.000000E+00
  2.250000E+03,   2.500000E+03,   2.375000E+03,   5.879326E+06,   0.000000E+00
  2.500000E+03,   2.750000E+03,   2.625000E+03,   5.879326E+06,   0.000000E+00
  2.750000E+03,   3.000000E+03,   2.875000E+03,   5.879326E+06,   0.000000E+00
  3.000000E+03,   3.250000E+03,   3.125000E+03,   5.639782E+06,   0.000000E+00
  3.250000E+03,   3.500000E+03,   3.375000E+03,   5.524503E+06,   0.000000E+00
  3.500000E+03,   3.750000E+03,   3.625000E+03,   5.524503E+06,   0.000000E+00
  3.750000E+03,   4.000000E+03,   3.875000E+03,   5.388810E+06,   0.000000E+00
  4.000000E+03,   4.250000E+03,   4.125000E+03,   5.148605E+06,   0.000000E+00
  4.250000E+03,   4.500000E+03,   4.375000E+03,   5.097484E+06,   0.000000E+00
  4.500000E+03,   4.750000E+03,   4.625000E+03,   4.962928E+06,   0.000000E+00
  4.750000E+03,   5.000000E+03,   4.875000E+03,   4.503912E+06,   0.000000E+00
  5.000000E+03,   5.500000E+03,   5.250000E+03,   9.007823E+06,   0.000000E+00
  5.500000E+03,   6.000000E+03,   5.750000E+03,   8.473041E+06,   0.000000E+00
  6.000000E+03,   6.500000E+03,   6.250000E+03,   8.115218E+06,   0.000000E+00
  6.500000E+03,   7.000000E+03,   6.750000E+03,   7.364553E+06,   0.000000E+00
  7.000000E+03,   1.000000E+04,   8.500000E+03,   3.750683E+07,   0.000000E+00
  1.000000E+04,   2.000000E+04,   1.500000E+04,   6.503356E+07,   0.000000E+00
  2.000000E+04,   3.000000E+04,   2.500000E+04,   3.308526E+07,   0.000000E+00
  3.000000E+04,   4.000000E+04,   3.500000E+04,   2.354395E+07,   0.000000E+00
  4.000000E+04,   5.000000E+04,   4.500000E+04,   1.793374E+07,   0.000000E+00
  5.000000E+04,   6.000000E+04,   5.500000E+04,   1.437923E+07,   0.000000E+00
  6.000000E+04,   7.000000E+04,   6.500000E+04,   1.176185E+07,   0.000000E+00
  7.000000E+04,   8.000000E+04,   7.500000E+04,   9.789635E+06,   0.000000E+00
  8.000000E+04,   1.000000E+05,   9.000000E+04,   1.486845E+07,   0.000000E+00
  1.000000E+05,   1.500000E+05,   1.250000E+05,   2.195841E+07,   0.000000E+00
  1.500000E+05,   2.000000E+05,   1.750000E+05,   1.006233E+07,   0.000000E+00
  2.000000E+05,   3.000000E+05,   2.500000E+05,   5.435335E+06,   0.000000E+00
  3.000000E+05,   4.000000E+05,   3.500000E+05,   5.045723E+05,   0.000000E+00
  4.000000E+05,   5.000000E+05,   4.500000E+05,   2.980514E+03,   0.000000E+00
  5.000000E+05,   8.000000E+05,   6.500000E+05,   1.401301E+02,   0.000000E+00
  8.000000E+05,   1.000000E+06,   0.000000E+00,   0.000000E+00,   0.000000E+00
'End of File'
