'*',    13,     3,     4,     0,     5,     5,    46,     2
'OMNIDIRECTIONAL FLUENCE ANALYSIS'
'MULASSIS ml-v01-19'
'geant4-09-02-ref-00 (19-December-2008)'
'FLU_BDY', 1, 2, ' '
'FLU_PAR, -1, proton  '
'FLU_AMN', 1, 0., 'deg'
'FLU_AMX', 1, 90., 'deg'
'Elo','keV', 1, ' Lower edge of energy    bin '
'Eup','keV', 1, ' Upper edge of energy    bin '
'Emean','keV', 1, ' Mean energy of bin '
'Value','particles/cm2/bin',1,             'Fluence/flux'
'Error','particles/cm2/bin',1,'Error in   fluence/flux'
  0.000000E+00,   4.000000E+01,   2.000000E+01,   2.134508E+05,   0.000000E+00
  4.000000E+01,   1.000000E+02,   7.000000E+01,   3.201762E+05,   0.000000E+00
  1.000000E+02,   2.000000E+02,   1.500000E+02,   5.336271E+05,   0.000000E+00
  2.000000E+02,   3.000000E+02,   2.500000E+02,   5.336271E+05,   0.000000E+00
  3.000000E+02,   4.000000E+02,   3.500000E+02,   5.336271E+05,   0.000000E+00
  4.000000E+02,   5.000000E+02,   4.500000E+02,   5.336271E+05,   0.000000E+00
  5.000000E+02,   6.000000E+02,   5.500000E+02,   5.336271E+05,   0.000000E+00
  6.000000E+02,   7.000000E+02,   6.500000E+02,   5.336271E+05,   0.000000E+00
  7.000000E+02,   8.000000E+02,   7.500000E+02,   5.336271E+05,   0.000000E+00
  8.000000E+02,   1.000000E+03,   9.000000E+02,   1.067254E+06,   0.000000E+00
  1.000000E+03,   1.250000E+03,   1.125000E+03,   1.334068E+06,   0.000000E+00
  1.250000E+03,   1.500000E+03,   1.375000E+03,   1.334068E+06,   0.000000E+00
  1.500000E+03,   1.750000E+03,   1.625000E+03,   1.334068E+06,   0.000000E+00
  1.750000E+03,   2.000000E+03,   1.875000E+03,   1.334068E+06,   0.000000E+00
  2.000000E+03,   2.250000E+03,   2.125000E+03,   1.372616E+06,   0.000000E+00
  2.250000E+03,   2.500000E+03,   2.375000E+03,   1.602038E+06,   0.000000E+00
  2.500000E+03,   2.750000E+03,   2.625000E+03,   1.602038E+06,   0.000000E+00
  2.750000E+03,   3.000000E+03,   2.875000E+03,   1.602038E+06,   0.000000E+00
  3.000000E+03,   3.250000E+03,   3.125000E+03,   1.763640E+06,   0.000000E+00
  3.250000E+03,   3.500000E+03,   3.375000E+03,   1.841410E+06,   0.000000E+00
  3.500000E+03,   3.750000E+03,   3.625000E+03,   1.841410E+06,   0.000000E+00
  3.750000E+03,   4.000000E+03,   3.875000E+03,   1.915621E+06,   0.000000E+00
  4.000000E+03,   4.250000E+03,   4.125000E+03,   2.046991E+06,   0.000000E+00
  4.250000E+03,   4.500000E+03,   4.375000E+03,   2.114729E+06,   0.000000E+00
  4.500000E+03,   4.750000E+03,   4.625000E+03,   2.285983E+06,   0.000000E+00
  4.750000E+03,   5.000000E+03,   4.875000E+03,   2.489842E+06,   0.000000E+00
  5.000000E+03,   5.500000E+03,   5.250000E+03,   4.979685E+06,   0.000000E+00
  5.500000E+03,   6.000000E+03,   5.750000E+03,   5.165145E+06,   0.000000E+00
  6.000000E+03,   6.500000E+03,   6.250000E+03,   5.507690E+06,   0.000000E+00
  6.500000E+03,   7.000000E+03,   6.750000E+03,   6.136435E+06,   0.000000E+00
  7.000000E+03,   1.000000E+04,   8.500000E+03,   4.243335E+07,   0.000000E+00
  1.000000E+04,   2.000000E+04,   1.500000E+04,   2.277602E+08,   0.000000E+00
  2.000000E+04,   3.000000E+04,   2.500000E+04,   3.856219E+08,   0.000000E+00
  3.000000E+04,   4.000000E+04,   3.500000E+04,   4.411930E+08,   0.000000E+00
  4.000000E+04,   5.000000E+04,   4.500000E+04,   4.944351E+08,   0.000000E+00
  5.000000E+04,   6.000000E+04,   5.500000E+04,   4.936995E+08,   0.000000E+00
  6.000000E+04,   7.000000E+04,   6.500000E+04,   4.739279E+08,   0.000000E+00
  7.000000E+04,   8.000000E+04,   7.500000E+04,   4.468145E+08,   0.000000E+00
  8.000000E+04,   1.000000E+05,   9.000000E+04,   7.685042E+08,   0.000000E+00
  1.000000E+05,   1.500000E+05,   1.250000E+05,   1.744024E+09,   0.000000E+00
  1.500000E+05,   2.000000E+05,   1.750000E+05,   1.465769E+09,   0.000000E+00
  2.000000E+05,   3.000000E+05,   2.500000E+05,   1.417052E+09,   0.000000E+00
  3.000000E+05,   4.000000E+05,   3.500000E+05,   3.883238E+08,   0.000000E+00
  4.000000E+05,   5.000000E+05,   4.500000E+05,   5.362494E+05,   0.000000E+00
  5.000000E+05,   8.000000E+05,   6.500000E+05,   1.226262E+05,   0.000000E+00
  8.000000E+05,   1.000000E+06,   0.000000E+00,   0.000000E+00,   0.000000E+00
'End of Block'
'*',    13,     3,     4,     0,     5,     5,    46,     1
'OMNIDIRECTIONAL FLUENCE ANALYSIS'
'MULASSIS ml-v01-19'
'geant4-09-02-ref-00 (19-December-2008)'
'FLU_BDY', 1, 2, ' '
'FLU_PAR, -1, e-      '
'FLU_AMN', 1, 0., 'deg'
'FLU_AMX', 1, 90., 'deg'
'Elo','keV', 1, ' Lower edge of energy    bin '
'Eup','keV', 1, ' Upper edge of energy    bin '
'Emean','keV', 1, ' Mean energy of bin '
'Value','particles/cm2/bin',1,             'Fluence/flux'
'Error','particles/cm2/bin',1,'Error in   fluence/flux'
  0.000000E+00,   4.000000E+01,   2.000000E+01,   4.118372E+08,   0.000000E+00
  4.000000E+01,   1.000000E+02,   7.000000E+01,   2.710152E+08,   0.000000E+00
  1.000000E+02,   2.000000E+02,   1.500000E+02,   1.669377E+08,   0.000000E+00
  2.000000E+02,   3.000000E+02,   2.500000E+02,   6.127850E+07,   0.000000E+00
  3.000000E+02,   4.000000E+02,   3.500000E+02,   2.509127E+07,   0.000000E+00
  4.000000E+02,   5.000000E+02,   4.500000E+02,   1.148913E+07,   0.000000E+00
  5.000000E+02,   6.000000E+02,   5.500000E+02,   4.685813E+06,   0.000000E+00
  6.000000E+02,   7.000000E+02,   6.500000E+02,   2.331318E+06,   0.000000E+00
  7.000000E+02,   8.000000E+02,   7.500000E+02,   1.293521E+06,   0.000000E+00
  8.000000E+02,   1.000000E+03,   9.000000E+02,   1.213428E+06,   0.000000E+00
  1.000000E+03,   1.250000E+03,   1.125000E+03,   6.913805E+05,   0.000000E+00
  1.250000E+03,   1.500000E+03,   1.375000E+03,   3.631473E+05,   0.000000E+00
  1.500000E+03,   1.750000E+03,   1.625000E+03,   1.633798E+05,   0.000000E+00
  1.750000E+03,   2.000000E+03,   1.875000E+03,   1.029781E+05,   0.000000E+00
  2.000000E+03,   2.250000E+03,   2.125000E+03,   6.686513E+04,   0.000000E+00
  2.250000E+03,   2.500000E+03,   2.375000E+03,   4.789579E+04,   0.000000E+00
  2.500000E+03,   2.750000E+03,   2.625000E+03,   2.142078E+04,   0.000000E+00
  2.750000E+03,   3.000000E+03,   2.875000E+03,   2.133072E+04,   0.000000E+00
  3.000000E+03,   3.250000E+03,   3.125000E+03,   2.131265E+04,   0.000000E+00
  3.250000E+03,   3.500000E+03,   3.375000E+03,   2.129168E+04,   0.000000E+00
  3.500000E+03,   3.750000E+03,   3.625000E+03,   2.127538E+04,   0.000000E+00
  3.750000E+03,   4.000000E+03,   3.875000E+03,   2.127538E+04,   0.000000E+00
  4.000000E+03,   4.250000E+03,   4.125000E+03,   2.127538E+04,   0.000000E+00
  4.250000E+03,   4.500000E+03,   4.375000E+03,   2.127538E+04,   0.000000E+00
  4.500000E+03,   4.750000E+03,   4.625000E+03,   2.127538E+04,   0.000000E+00
  4.750000E+03,   5.000000E+03,   4.875000E+03,   2.127538E+04,   0.000000E+00
  5.000000E+03,   5.500000E+03,   5.250000E+03,   4.255075E+04,   0.000000E+00
  5.500000E+03,   6.000000E+03,   5.750000E+03,   4.255075E+04,   0.000000E+00
  6.000000E+03,   6.500000E+03,   6.250000E+03,   4.255075E+04,   0.000000E+00
  6.500000E+03,   7.000000E+03,   6.750000E+03,   4.255075E+04,   0.000000E+00
  7.000000E+03,   1.000000E+04,   8.500000E+03,   2.553045E+05,   0.000000E+00
  1.000000E+04,   2.000000E+04,   1.500000E+04,   8.510150E+05,   0.000000E+00
  2.000000E+04,   3.000000E+04,   2.500000E+04,   8.510150E+05,   0.000000E+00
  3.000000E+04,   4.000000E+04,   3.500000E+04,   8.510150E+05,   0.000000E+00
  4.000000E+04,   5.000000E+04,   4.500000E+04,   8.510150E+05,   0.000000E+00
  5.000000E+04,   6.000000E+04,   5.500000E+04,   8.510150E+05,   0.000000E+00
  6.000000E+04,   7.000000E+04,   6.500000E+04,   8.510150E+05,   0.000000E+00
  7.000000E+04,   8.000000E+04,   7.500000E+04,   8.296157E+05,   0.000000E+00
  8.000000E+04,   1.000000E+05,   9.000000E+04,   1.382734E+06,   0.000000E+00
  1.000000E+05,   1.500000E+05,   1.250000E+05,   2.312145E+06,   0.000000E+00
  1.500000E+05,   2.000000E+05,   1.750000E+05,   1.046890E+06,   0.000000E+00
  2.000000E+05,   3.000000E+05,   2.500000E+05,   6.127851E+05,   0.000000E+00
  3.000000E+05,   4.000000E+05,   3.500000E+05,   1.274460E+05,   0.000000E+00
  4.000000E+05,   5.000000E+05,   4.500000E+05,   2.323812E+02,   0.000000E+00
  5.000000E+05,   8.000000E+05,   6.500000E+05,   3.065726E+01,   0.000000E+00
  8.000000E+05,   1.000000E+06,   0.000000E+00,   0.000000E+00,   0.000000E+00
'End of Block'
'*',    13,     3,     4,     0,     5,     5,    46,    -1
'OMNIDIRECTIONAL FLUENCE ANALYSIS'
'MULASSIS ml-v01-19'
'geant4-09-02-ref-00 (19-December-2008)'
'FLU_BDY', 1, 2, ' '
'FLU_PAR, -1, neutron '
'FLU_AMN', 1, 0., 'deg'
'FLU_AMX', 1, 90., 'deg'
'Elo','keV', 1, ' Lower edge of energy    bin '
'Eup','keV', 1, ' Upper edge of energy    bin '
'Emean','keV', 1, ' Mean energy of bin '
'Value','particles/cm2/bin',1,             'Fluence/flux'
'Error','particles/cm2/bin',1,'Error in   fluence/flux'
  0.000000E+00,   4.000000E+01,   2.000000E+01,   2.770386E+06,   0.000000E+00
  4.000000E+01,   1.000000E+02,   7.000000E+01,   4.155578E+06,   0.000000E+00
  1.000000E+02,   2.000000E+02,   1.500000E+02,   6.925964E+06,   0.000000E+00
  2.000000E+02,   3.000000E+02,   2.500000E+02,   6.925964E+06,   0.000000E+00
  3.000000E+02,   4.000000E+02,   3.500000E+02,   6.925964E+06,   0.000000E+00
  4.000000E+02,   5.000000E+02,   4.500000E+02,   6.925964E+06,   0.000000E+00
  5.000000E+02,   6.000000E+02,   5.500000E+02,   6.925964E+06,   0.000000E+00
  6.000000E+02,   7.000000E+02,   6.500000E+02,   6.925964E+06,   0.000000E+00
  7.000000E+02,   8.000000E+02,   7.500000E+02,   6.925964E+06,   0.000000E+00
  8.000000E+02,   1.000000E+03,   9.000000E+02,   1.385193E+07,   0.000000E+00
  1.000000E+03,   1.250000E+03,   1.125000E+03,   1.731491E+07,   0.000000E+00
  1.250000E+03,   1.500000E+03,   1.375000E+03,   1.731491E+07,   0.000000E+00
  1.500000E+03,   1.750000E+03,   1.625000E+03,   1.731491E+07,   0.000000E+00
  1.750000E+03,   2.000000E+03,   1.875000E+03,   1.731491E+07,   0.000000E+00
  2.000000E+03,   2.250000E+03,   2.125000E+03,   1.718574E+07,   0.000000E+00
  2.250000E+03,   2.500000E+03,   2.375000E+03,   1.641697E+07,   0.000000E+00
  2.500000E+03,   2.750000E+03,   2.625000E+03,   1.641697E+07,   0.000000E+00
  2.750000E+03,   3.000000E+03,   2.875000E+03,   1.641697E+07,   0.000000E+00
  3.000000E+03,   3.250000E+03,   3.125000E+03,   1.578705E+07,   0.000000E+00
  3.250000E+03,   3.500000E+03,   3.375000E+03,   1.548391E+07,   0.000000E+00
  3.500000E+03,   3.750000E+03,   3.625000E+03,   1.548391E+07,   0.000000E+00
  3.750000E+03,   4.000000E+03,   3.875000E+03,   1.512346E+07,   0.000000E+00
  4.000000E+03,   4.250000E+03,   4.125000E+03,   1.448539E+07,   0.000000E+00
  4.250000E+03,   4.500000E+03,   4.375000E+03,   1.435228E+07,   0.000000E+00
  4.500000E+03,   4.750000E+03,   4.625000E+03,   1.400110E+07,   0.000000E+00
  4.750000E+03,   5.000000E+03,   4.875000E+03,   1.275828E+07,   0.000000E+00
  5.000000E+03,   5.500000E+03,   5.250000E+03,   2.551656E+07,   0.000000E+00
  5.500000E+03,   6.000000E+03,   5.750000E+03,   2.405237E+07,   0.000000E+00
  6.000000E+03,   6.500000E+03,   6.250000E+03,   2.309430E+07,   0.000000E+00
  6.500000E+03,   7.000000E+03,   6.750000E+03,   2.104825E+07,   0.000000E+00
  7.000000E+03,   1.000000E+04,   8.500000E+03,   1.077812E+08,   0.000000E+00
  1.000000E+04,   2.000000E+04,   1.500000E+04,   1.885554E+08,   0.000000E+00
  2.000000E+04,   3.000000E+04,   2.500000E+04,   9.481472E+07,   0.000000E+00
  3.000000E+04,   4.000000E+04,   3.500000E+04,   6.732978E+07,   0.000000E+00
  4.000000E+04,   5.000000E+04,   4.500000E+04,   5.155648E+07,   0.000000E+00
  5.000000E+04,   6.000000E+04,   5.500000E+04,   4.149330E+07,   0.000000E+00
  6.000000E+04,   7.000000E+04,   6.500000E+04,   3.416210E+07,   0.000000E+00
  7.000000E+04,   8.000000E+04,   7.500000E+04,   2.855987E+07,   0.000000E+00
  8.000000E+04,   1.000000E+05,   9.000000E+04,   4.389964E+07,   0.000000E+00
  1.000000E+05,   1.500000E+05,   1.250000E+05,   6.609318E+07,   0.000000E+00
  1.500000E+05,   2.000000E+05,   1.750000E+05,   3.118070E+07,   0.000000E+00
  2.000000E+05,   3.000000E+05,   2.500000E+05,   1.788864E+07,   0.000000E+00
  3.000000E+05,   4.000000E+05,   3.500000E+05,   2.006849E+06,   0.000000E+00
  4.000000E+05,   5.000000E+05,   4.500000E+05,   3.112564E+03,   0.000000E+00
  5.000000E+05,   8.000000E+05,   6.500000E+05,   1.463919E+02,   0.000000E+00
  8.000000E+05,   1.000000E+06,   0.000000E+00,   0.000000E+00,   0.000000E+00
'End of File'
