'*',    13,     3,     4,     0,     5,     5,    46,     2
'OMNIDIRECTIONAL FLUENCE ANALYSIS'
'MULASSIS ml-v01-19'
'geant4-09-02-ref-00 (19-December-2008)'
'FLU_BDY', 1, 2, ' '
'FLU_PAR, -1, proton  '
'FLU_AMN', 1, 0., 'deg'
'FLU_AMX', 1, 90., 'deg'
'Elo','keV', 1, ' Lower edge of energy    bin '
'Eup','keV', 1, ' Upper edge of energy    bin '
'Emean','keV', 1, ' Mean energy of bin '
'Value','particles/cm2/bin',1,             'Fluence/flux'
'Error','particles/cm2/bin',1,'Error in   fluence/flux'
  0.000000E+00,   4.000000E+01,   2.000000E+01,   1.837890E+04,   0.000000E+00
  4.000000E+01,   1.000000E+02,   7.000000E+01,   2.756835E+04,   0.000000E+00
  1.000000E+02,   2.000000E+02,   1.500000E+02,   4.594725E+04,   0.000000E+00
  2.000000E+02,   3.000000E+02,   2.500000E+02,   4.594725E+04,   0.000000E+00
  3.000000E+02,   4.000000E+02,   3.500000E+02,   4.594725E+04,   0.000000E+00
  4.000000E+02,   5.000000E+02,   4.500000E+02,   4.594725E+04,   0.000000E+00
  5.000000E+02,   6.000000E+02,   5.500000E+02,   4.594725E+04,   0.000000E+00
  6.000000E+02,   7.000000E+02,   6.500000E+02,   4.594725E+04,   0.000000E+00
  7.000000E+02,   8.000000E+02,   7.500000E+02,   4.594725E+04,   0.000000E+00
  8.000000E+02,   1.000000E+03,   9.000000E+02,   9.189450E+04,   0.000000E+00
  1.000000E+03,   1.250000E+03,   1.125000E+03,   1.148681E+05,   0.000000E+00
  1.250000E+03,   1.500000E+03,   1.375000E+03,   1.148681E+05,   0.000000E+00
  1.500000E+03,   1.750000E+03,   1.625000E+03,   1.148681E+05,   0.000000E+00
  1.750000E+03,   2.000000E+03,   1.875000E+03,   1.148681E+05,   0.000000E+00
  2.000000E+03,   2.250000E+03,   2.125000E+03,   1.198501E+05,   0.000000E+00
  2.250000E+03,   2.500000E+03,   2.375000E+03,   1.495005E+05,   0.000000E+00
  2.500000E+03,   2.750000E+03,   2.625000E+03,   1.495005E+05,   0.000000E+00
  2.750000E+03,   3.000000E+03,   2.875000E+03,   1.495005E+05,   0.000000E+00
  3.000000E+03,   3.250000E+03,   3.125000E+03,   1.685558E+05,   0.000000E+00
  3.250000E+03,   3.500000E+03,   3.375000E+03,   1.777261E+05,   0.000000E+00
  3.500000E+03,   3.750000E+03,   3.625000E+03,   1.777261E+05,   0.000000E+00
  3.750000E+03,   4.000000E+03,   3.875000E+03,   1.856116E+05,   0.000000E+00
  4.000000E+03,   4.250000E+03,   4.125000E+03,   1.995706E+05,   0.000000E+00
  4.250000E+03,   4.500000E+03,   4.375000E+03,   2.083250E+05,   0.000000E+00
  4.500000E+03,   4.750000E+03,   4.625000E+03,   2.302691E+05,   0.000000E+00
  4.750000E+03,   5.000000E+03,   4.875000E+03,   2.457755E+05,   0.000000E+00
  5.000000E+03,   5.500000E+03,   5.250000E+03,   4.915509E+05,   0.000000E+00
  5.500000E+03,   6.000000E+03,   5.750000E+03,   5.046513E+05,   0.000000E+00
  6.000000E+03,   6.500000E+03,   6.250000E+03,   5.424511E+05,   0.000000E+00
  6.500000E+03,   7.000000E+03,   6.750000E+03,   6.125672E+05,   0.000000E+00
  7.000000E+03,   1.000000E+04,   8.500000E+03,   4.261736E+06,   0.000000E+00
  1.000000E+04,   2.000000E+04,   1.500000E+04,   2.322573E+07,   0.000000E+00
  2.000000E+04,   3.000000E+04,   2.500000E+04,   4.048402E+07,   0.000000E+00
  3.000000E+04,   4.000000E+04,   3.500000E+04,   4.394979E+07,   0.000000E+00
  4.000000E+04,   5.000000E+04,   4.500000E+04,   4.634605E+07,   0.000000E+00
  5.000000E+04,   6.000000E+04,   5.500000E+04,   4.174849E+07,   0.000000E+00
  6.000000E+04,   7.000000E+04,   6.500000E+04,   3.485632E+07,   0.000000E+00
  7.000000E+04,   8.000000E+04,   7.500000E+04,   3.083806E+07,   0.000000E+00
  8.000000E+04,   1.000000E+05,   9.000000E+04,   4.964560E+07,   0.000000E+00
  1.000000E+05,   1.500000E+05,   1.250000E+05,   9.698367E+07,   0.000000E+00
  1.500000E+05,   2.000000E+05,   1.750000E+05,   6.735862E+07,   0.000000E+00
  2.000000E+05,   3.000000E+05,   2.500000E+05,   5.738932E+07,   0.000000E+00
  3.000000E+05,   4.000000E+05,   3.500000E+05,   9.890152E+05,   0.000000E+00
  4.000000E+05,   5.000000E+05,   4.500000E+05,   1.944378E+06,   0.000000E+00
  5.000000E+05,   8.000000E+05,   6.500000E+05,   4.380726E+05,   0.000000E+00
  8.000000E+05,   1.000000E+06,   0.000000E+00,   0.000000E+00,   0.000000E+00
'End of Block'
'*',    13,     3,     4,     0,     5,     5,    46,     1
'OMNIDIRECTIONAL FLUENCE ANALYSIS'
'MULASSIS ml-v01-19'
'geant4-09-02-ref-00 (19-December-2008)'
'FLU_BDY', 1, 2, ' '
'FLU_PAR, -1, e-      '
'FLU_AMN', 1, 0., 'deg'
'FLU_AMX', 1, 90., 'deg'
'Elo','keV', 1, ' Lower edge of energy    bin '
'Eup','keV', 1, ' Upper edge of energy    bin '
'Emean','keV', 1, ' Mean energy of bin '
'Value','particles/cm2/bin',1,             'Fluence/flux'
'Error','particles/cm2/bin',1,'Error in   fluence/flux'
  0.000000E+00,   4.000000E+01,   2.000000E+01,   2.616585E+07,   0.000000E+00
  4.000000E+01,   1.000000E+02,   7.000000E+01,   1.410967E+07,   0.000000E+00
  1.000000E+02,   2.000000E+02,   1.500000E+02,   7.806262E+06,   0.000000E+00
  2.000000E+02,   3.000000E+02,   2.500000E+02,   2.502764E+06,   0.000000E+00
  3.000000E+02,   4.000000E+02,   3.500000E+02,   9.017280E+05,   0.000000E+00
  4.000000E+02,   5.000000E+02,   4.500000E+02,   3.551092E+05,   0.000000E+00
  5.000000E+02,   6.000000E+02,   5.500000E+02,   1.418251E+05,   0.000000E+00
  6.000000E+02,   7.000000E+02,   6.500000E+02,   5.894847E+04,   0.000000E+00
  7.000000E+02,   8.000000E+02,   7.500000E+02,   2.845660E+04,   0.000000E+00
  8.000000E+02,   1.000000E+03,   9.000000E+02,   3.555287E+04,   0.000000E+00
  1.000000E+03,   1.250000E+03,   1.125000E+03,   2.764032E+04,   0.000000E+00
  1.250000E+03,   1.500000E+03,   1.375000E+03,   1.310977E+04,   0.000000E+00
  1.500000E+03,   1.750000E+03,   1.625000E+03,   5.156760E+03,   0.000000E+00
  1.750000E+03,   2.000000E+03,   1.875000E+03,   2.785154E+03,   0.000000E+00
  2.000000E+03,   2.250000E+03,   2.125000E+03,   1.689292E+03,   0.000000E+00
  2.250000E+03,   2.500000E+03,   2.375000E+03,   9.961418E+02,   0.000000E+00
  2.500000E+03,   2.750000E+03,   2.625000E+03,   1.906666E+03,   0.000000E+00
  2.750000E+03,   3.000000E+03,   2.875000E+03,   1.777023E+03,   0.000000E+00
  3.000000E+03,   3.250000E+03,   3.125000E+03,   1.711123E+03,   0.000000E+00
  3.250000E+03,   3.500000E+03,   3.375000E+03,   1.635883E+03,   0.000000E+00
  3.500000E+03,   3.750000E+03,   3.625000E+03,   1.577656E+03,   0.000000E+00
  3.750000E+03,   4.000000E+03,   3.875000E+03,   1.577656E+03,   0.000000E+00
  4.000000E+03,   4.250000E+03,   4.125000E+03,   1.577656E+03,   0.000000E+00
  4.250000E+03,   4.500000E+03,   4.375000E+03,   1.577656E+03,   0.000000E+00
  4.500000E+03,   4.750000E+03,   4.625000E+03,   1.577656E+03,   0.000000E+00
  4.750000E+03,   5.000000E+03,   4.875000E+03,   1.577656E+03,   0.000000E+00
  5.000000E+03,   5.500000E+03,   5.250000E+03,   3.155312E+03,   0.000000E+00
  5.500000E+03,   6.000000E+03,   5.750000E+03,   3.155312E+03,   0.000000E+00
  6.000000E+03,   6.500000E+03,   6.250000E+03,   3.155312E+03,   0.000000E+00
  6.500000E+03,   7.000000E+03,   6.750000E+03,   3.155312E+03,   0.000000E+00
  7.000000E+03,   1.000000E+04,   8.500000E+03,   1.893187E+04,   0.000000E+00
  1.000000E+04,   2.000000E+04,   1.500000E+04,   6.310625E+04,   0.000000E+00
  2.000000E+04,   3.000000E+04,   2.500000E+04,   6.310625E+04,   0.000000E+00
  3.000000E+04,   4.000000E+04,   3.500000E+04,   6.310625E+04,   0.000000E+00
  4.000000E+04,   5.000000E+04,   4.500000E+04,   6.310625E+04,   0.000000E+00
  5.000000E+04,   6.000000E+04,   5.500000E+04,   6.310625E+04,   0.000000E+00
  6.000000E+04,   7.000000E+04,   6.500000E+04,   6.310625E+04,   0.000000E+00
  7.000000E+04,   8.000000E+04,   7.500000E+04,   6.034061E+04,   0.000000E+00
  8.000000E+04,   1.000000E+05,   9.000000E+04,   8.664440E+04,   0.000000E+00
  1.000000E+05,   1.500000E+05,   1.250000E+05,   1.230213E+05,   0.000000E+00
  1.500000E+05,   2.000000E+05,   1.750000E+05,   4.507734E+04,   0.000000E+00
  2.000000E+05,   3.000000E+05,   2.500000E+05,   1.947860E+04,   0.000000E+00
  3.000000E+05,   4.000000E+05,   3.500000E+05,   3.637678E+02,   0.000000E+00
  4.000000E+05,   5.000000E+05,   4.500000E+05,   8.368590E+02,   0.000000E+00
  5.000000E+05,   8.000000E+05,   6.500000E+05,   1.095207E+02,   0.000000E+00
  8.000000E+05,   1.000000E+06,   0.000000E+00,   0.000000E+00,   0.000000E+00
'End of Block'
'*',    13,     3,     4,     0,     5,     5,    46,    -1
'OMNIDIRECTIONAL FLUENCE ANALYSIS'
'MULASSIS ml-v01-19'
'geant4-09-02-ref-00 (19-December-2008)'
'FLU_BDY', 1, 2, ' '
'FLU_PAR, -1, neutron '
'FLU_AMN', 1, 0., 'deg'
'FLU_AMX', 1, 90., 'deg'
'Elo','keV', 1, ' Lower edge of energy    bin '
'Eup','keV', 1, ' Upper edge of energy    bin '
'Emean','keV', 1, ' Mean energy of bin '
'Value','particles/cm2/bin',1,             'Fluence/flux'
'Error','particles/cm2/bin',1,'Error in   fluence/flux'
  0.000000E+00,   4.000000E+01,   2.000000E+01,   2.146602E+05,   0.000000E+00
  4.000000E+01,   1.000000E+02,   7.000000E+01,   3.219904E+05,   0.000000E+00
  1.000000E+02,   2.000000E+02,   1.500000E+02,   5.366506E+05,   0.000000E+00
  2.000000E+02,   3.000000E+02,   2.500000E+02,   5.366506E+05,   0.000000E+00
  3.000000E+02,   4.000000E+02,   3.500000E+02,   5.366506E+05,   0.000000E+00
  4.000000E+02,   5.000000E+02,   4.500000E+02,   5.366506E+05,   0.000000E+00
  5.000000E+02,   6.000000E+02,   5.500000E+02,   5.366506E+05,   0.000000E+00
  6.000000E+02,   7.000000E+02,   6.500000E+02,   5.366506E+05,   0.000000E+00
  7.000000E+02,   8.000000E+02,   7.500000E+02,   5.366506E+05,   0.000000E+00
  8.000000E+02,   1.000000E+03,   9.000000E+02,   1.073301E+06,   0.000000E+00
  1.000000E+03,   1.250000E+03,   1.125000E+03,   1.341627E+06,   0.000000E+00
  1.250000E+03,   1.500000E+03,   1.375000E+03,   1.341627E+06,   0.000000E+00
  1.500000E+03,   1.750000E+03,   1.625000E+03,   1.341627E+06,   0.000000E+00
  1.750000E+03,   2.000000E+03,   1.875000E+03,   1.341627E+06,   0.000000E+00
  2.000000E+03,   2.250000E+03,   2.125000E+03,   1.324933E+06,   0.000000E+00
  2.250000E+03,   2.500000E+03,   2.375000E+03,   1.225577E+06,   0.000000E+00
  2.500000E+03,   2.750000E+03,   2.625000E+03,   1.225577E+06,   0.000000E+00
  2.750000E+03,   3.000000E+03,   2.875000E+03,   1.225577E+06,   0.000000E+00
  3.000000E+03,   3.250000E+03,   3.125000E+03,   1.151300E+06,   0.000000E+00
  3.250000E+03,   3.500000E+03,   3.375000E+03,   1.115555E+06,   0.000000E+00
  3.500000E+03,   3.750000E+03,   3.625000E+03,   1.115555E+06,   0.000000E+00
  3.750000E+03,   4.000000E+03,   3.875000E+03,   1.077255E+06,   0.000000E+00
  4.000000E+03,   4.250000E+03,   4.125000E+03,   1.009455E+06,   0.000000E+00
  4.250000E+03,   4.500000E+03,   4.375000E+03,   9.922522E+05,   0.000000E+00
  4.500000E+03,   4.750000E+03,   4.625000E+03,   9.480161E+05,   0.000000E+00
  4.750000E+03,   5.000000E+03,   4.875000E+03,   8.534823E+05,   0.000000E+00
  5.000000E+03,   5.500000E+03,   5.250000E+03,   1.706965E+06,   0.000000E+00
  5.500000E+03,   6.000000E+03,   5.750000E+03,   1.603538E+06,   0.000000E+00
  6.000000E+03,   6.500000E+03,   6.250000E+03,   1.511028E+06,   0.000000E+00
  6.500000E+03,   7.000000E+03,   6.750000E+03,   1.342450E+06,   0.000000E+00
  7.000000E+03,   1.000000E+04,   8.500000E+03,   6.685596E+06,   0.000000E+00
  1.000000E+04,   2.000000E+04,   1.500000E+04,   1.152712E+07,   0.000000E+00
  2.000000E+04,   3.000000E+04,   2.500000E+04,   6.117860E+06,   0.000000E+00
  3.000000E+04,   4.000000E+04,   3.500000E+04,   4.312702E+06,   0.000000E+00
  4.000000E+04,   5.000000E+04,   4.500000E+04,   3.150040E+06,   0.000000E+00
  5.000000E+04,   6.000000E+04,   5.500000E+04,   2.444776E+06,   0.000000E+00
  6.000000E+04,   7.000000E+04,   6.500000E+04,   1.915231E+06,   0.000000E+00
  7.000000E+04,   8.000000E+04,   7.500000E+04,   1.548611E+06,   0.000000E+00
  8.000000E+04,   1.000000E+05,   9.000000E+04,   2.186531E+06,   0.000000E+00
  1.000000E+05,   1.500000E+05,   1.250000E+05,   2.946468E+06,   0.000000E+00
  1.500000E+05,   2.000000E+05,   1.750000E+05,   1.211903E+06,   0.000000E+00
  2.000000E+05,   3.000000E+05,   2.500000E+05,   5.410210E+05,   0.000000E+00
  3.000000E+05,   4.000000E+05,   0.000000E+00,  -2.843367E+03,   0.000000E+00
  4.000000E+05,   5.000000E+05,   4.500000E+05,   1.118052E+04,   0.000000E+00
  5.000000E+05,   8.000000E+05,   6.500000E+05,   5.229735E+02,   0.000000E+00
  8.000000E+05,   1.000000E+06,   0.000000E+00,   0.000000E+00,   0.000000E+00
'End of File'
