'*',    13,     3,     4,     0,     5,     5,    46,     2
'OMNIDIRECTIONAL FLUENCE ANALYSIS'
'MULASSIS ml-v01-19'
'geant4-09-02-ref-00 (19-December-2008)'
'FLU_BDY', 1, 2, ' '
'FLU_PAR, -1, proton  '
'FLU_AMN', 1, 0., 'deg'
'FLU_AMX', 1, 90., 'deg'
'Elo','keV', 1, ' Lower edge of energy    bin '
'Eup','keV', 1, ' Upper edge of energy    bin '
'Emean','keV', 1, ' Mean energy of bin '
'Value','particles/cm2/bin',1,             'Fluence/flux'
'Error','particles/cm2/bin',1,'Error in   fluence/flux'
  0.000000E+00,   4.000000E+01,   2.000000E+01,   6.969923E+03,   0.000000E+00
  4.000000E+01,   1.000000E+02,   7.000000E+01,   1.045488E+04,   0.000000E+00
  1.000000E+02,   2.000000E+02,   1.500000E+02,   1.742481E+04,   0.000000E+00
  2.000000E+02,   3.000000E+02,   2.500000E+02,   1.742481E+04,   0.000000E+00
  3.000000E+02,   4.000000E+02,   3.500000E+02,   1.742481E+04,   0.000000E+00
  4.000000E+02,   5.000000E+02,   4.500000E+02,   1.742481E+04,   0.000000E+00
  5.000000E+02,   6.000000E+02,   5.500000E+02,   1.742481E+04,   0.000000E+00
  6.000000E+02,   7.000000E+02,   6.500000E+02,   1.742481E+04,   0.000000E+00
  7.000000E+02,   8.000000E+02,   7.500000E+02,   1.742481E+04,   0.000000E+00
  8.000000E+02,   1.000000E+03,   9.000000E+02,   3.484961E+04,   0.000000E+00
  1.000000E+03,   1.250000E+03,   1.125000E+03,   4.356202E+04,   0.000000E+00
  1.250000E+03,   1.500000E+03,   1.375000E+03,   4.356202E+04,   0.000000E+00
  1.500000E+03,   1.750000E+03,   1.625000E+03,   4.356202E+04,   0.000000E+00
  1.750000E+03,   2.000000E+03,   1.875000E+03,   4.356202E+04,   0.000000E+00
  2.000000E+03,   2.250000E+03,   2.125000E+03,   4.577615E+04,   0.000000E+00
  2.250000E+03,   2.500000E+03,   2.375000E+03,   5.895369E+04,   0.000000E+00
  2.500000E+03,   2.750000E+03,   2.625000E+03,   5.895369E+04,   0.000000E+00
  2.750000E+03,   3.000000E+03,   2.875000E+03,   5.895369E+04,   0.000000E+00
  3.000000E+03,   3.250000E+03,   3.125000E+03,   6.708536E+04,   0.000000E+00
  3.250000E+03,   3.500000E+03,   3.375000E+03,   7.099866E+04,   0.000000E+00
  3.500000E+03,   3.750000E+03,   3.625000E+03,   7.099866E+04,   0.000000E+00
  3.750000E+03,   4.000000E+03,   3.875000E+03,   7.418179E+04,   0.000000E+00
  4.000000E+03,   4.250000E+03,   4.125000E+03,   7.981661E+04,   0.000000E+00
  4.250000E+03,   4.500000E+03,   4.375000E+03,   8.370737E+04,   0.000000E+00
  4.500000E+03,   4.750000E+03,   4.625000E+03,   9.342531E+04,   0.000000E+00
  4.750000E+03,   5.000000E+03,   4.875000E+03,   9.832537E+04,   0.000000E+00
  5.000000E+03,   5.500000E+03,   5.250000E+03,   1.966507E+05,   0.000000E+00
  5.500000E+03,   6.000000E+03,   5.750000E+03,   2.006071E+05,   0.000000E+00
  6.000000E+03,   6.500000E+03,   6.250000E+03,   2.162548E+05,   0.000000E+00
  6.500000E+03,   7.000000E+03,   6.750000E+03,   2.456359E+05,   0.000000E+00
  7.000000E+03,   1.000000E+04,   8.500000E+03,   1.711893E+06,   0.000000E+00
  1.000000E+04,   2.000000E+04,   1.500000E+04,   9.372515E+06,   0.000000E+00
  2.000000E+04,   3.000000E+04,   2.500000E+04,   1.653051E+07,   0.000000E+00
  3.000000E+04,   4.000000E+04,   3.500000E+04,   1.743971E+07,   0.000000E+00
  4.000000E+04,   5.000000E+04,   4.500000E+04,   1.772999E+07,   0.000000E+00
  5.000000E+04,   6.000000E+04,   5.500000E+04,   1.491686E+07,   0.000000E+00
  6.000000E+04,   7.000000E+04,   6.500000E+04,   1.116022E+07,   0.000000E+00
  7.000000E+04,   8.000000E+04,   7.500000E+04,   9.408842E+06,   0.000000E+00
  8.000000E+04,   1.000000E+05,   9.000000E+04,   1.476849E+07,   0.000000E+00
  1.000000E+05,   1.500000E+05,   1.250000E+05,   2.681646E+07,   0.000000E+00
  1.500000E+05,   2.000000E+05,   1.750000E+05,   1.759187E+07,   0.000000E+00
  2.000000E+05,   3.000000E+05,   2.500000E+05,   1.775390E+07,   0.000000E+00
  3.000000E+05,   4.000000E+05,   3.500000E+05,   5.131730E+06,   0.000000E+00
  4.000000E+05,   5.000000E+05,   4.500000E+05,   1.899252E+06,   0.000000E+00
  5.000000E+05,   8.000000E+05,   6.500000E+05,   4.328251E+05,   0.000000E+00
  8.000000E+05,   1.000000E+06,   0.000000E+00,   0.000000E+00,   0.000000E+00
'End of Block'
'*',    13,     3,     4,     0,     5,     5,    46,     1
'OMNIDIRECTIONAL FLUENCE ANALYSIS'
'MULASSIS ml-v01-19'
'geant4-09-02-ref-00 (19-December-2008)'
'FLU_BDY', 1, 2, ' '
'FLU_PAR, -1, e-      '
'FLU_AMN', 1, 0., 'deg'
'FLU_AMX', 1, 90., 'deg'
'Elo','keV', 1, ' Lower edge of energy    bin '
'Eup','keV', 1, ' Upper edge of energy    bin '
'Emean','keV', 1, ' Mean energy of bin '
'Value','particles/cm2/bin',1,             'Fluence/flux'
'Error','particles/cm2/bin',1,'Error in   fluence/flux'
  0.000000E+00,   4.000000E+01,   2.000000E+01,   8.548014E+06,   0.000000E+00
  4.000000E+01,   1.000000E+02,   7.000000E+01,   4.367772E+06,   0.000000E+00
  1.000000E+02,   2.000000E+02,   1.500000E+02,   2.417043E+06,   0.000000E+00
  2.000000E+02,   3.000000E+02,   2.500000E+02,   8.282817E+05,   0.000000E+00
  3.000000E+02,   4.000000E+02,   3.500000E+02,   3.430624E+05,   0.000000E+00
  4.000000E+02,   5.000000E+02,   4.500000E+02,   1.674022E+05,   0.000000E+00
  5.000000E+02,   6.000000E+02,   5.500000E+02,   7.913275E+04,   0.000000E+00
  6.000000E+02,   7.000000E+02,   6.500000E+02,   4.246105E+04,   0.000000E+00
  7.000000E+02,   8.000000E+02,   7.500000E+02,   2.363342E+04,   0.000000E+00
  8.000000E+02,   1.000000E+03,   9.000000E+02,   2.432236E+04,   0.000000E+00
  1.000000E+03,   1.250000E+03,   1.125000E+03,   1.273738E+04,   0.000000E+00
  1.250000E+03,   1.500000E+03,   1.375000E+03,   6.177113E+03,   0.000000E+00
  1.500000E+03,   1.750000E+03,   1.625000E+03,   3.009588E+03,   0.000000E+00
  1.750000E+03,   2.000000E+03,   1.875000E+03,   2.041306E+03,   0.000000E+00
  2.000000E+03,   2.250000E+03,   2.125000E+03,   1.490806E+03,   0.000000E+00
  2.250000E+03,   2.500000E+03,   2.375000E+03,   1.156467E+03,   0.000000E+00
  2.500000E+03,   2.750000E+03,   2.625000E+03,   8.804654E+02,   0.000000E+00
  2.750000E+03,   3.000000E+03,   2.875000E+03,   7.526870E+02,   0.000000E+00
  3.000000E+03,   3.250000E+03,   3.125000E+03,   6.885835E+02,   0.000000E+00
  3.250000E+03,   3.500000E+03,   3.375000E+03,   6.144750E+02,   0.000000E+00
  3.500000E+03,   3.750000E+03,   3.625000E+03,   5.569456E+02,   0.000000E+00
  3.750000E+03,   4.000000E+03,   3.875000E+03,   5.569456E+02,   0.000000E+00
  4.000000E+03,   4.250000E+03,   4.125000E+03,   5.569456E+02,   0.000000E+00
  4.250000E+03,   4.500000E+03,   4.375000E+03,   5.569456E+02,   0.000000E+00
  4.500000E+03,   4.750000E+03,   4.625000E+03,   5.569456E+02,   0.000000E+00
  4.750000E+03,   5.000000E+03,   4.875000E+03,   5.569456E+02,   0.000000E+00
  5.000000E+03,   5.500000E+03,   5.250000E+03,   1.113891E+03,   0.000000E+00
  5.500000E+03,   6.000000E+03,   5.750000E+03,   1.113891E+03,   0.000000E+00
  6.000000E+03,   6.500000E+03,   6.250000E+03,   1.113891E+03,   0.000000E+00
  6.500000E+03,   7.000000E+03,   6.750000E+03,   1.113891E+03,   0.000000E+00
  7.000000E+03,   1.000000E+04,   8.500000E+03,   6.683347E+03,   0.000000E+00
  1.000000E+04,   2.000000E+04,   1.500000E+04,   2.227782E+04,   0.000000E+00
  2.000000E+04,   3.000000E+04,   2.500000E+04,   2.227782E+04,   0.000000E+00
  3.000000E+04,   4.000000E+04,   3.500000E+04,   2.227782E+04,   0.000000E+00
  4.000000E+04,   5.000000E+04,   4.500000E+04,   2.227782E+04,   0.000000E+00
  5.000000E+04,   6.000000E+04,   5.500000E+04,   2.227782E+04,   0.000000E+00
  6.000000E+04,   7.000000E+04,   6.500000E+04,   2.227782E+04,   0.000000E+00
  7.000000E+04,   8.000000E+04,   7.500000E+04,   2.104869E+04,   0.000000E+00
  8.000000E+04,   1.000000E+05,   9.000000E+04,   2.728552E+04,   0.000000E+00
  1.000000E+05,   1.500000E+05,   1.250000E+05,   3.595759E+04,   0.000000E+00
  1.500000E+05,   2.000000E+05,   1.750000E+05,   1.355304E+04,   0.000000E+00
  2.000000E+05,   3.000000E+05,   2.500000E+05,   8.618691E+03,   0.000000E+00
  3.000000E+05,   4.000000E+05,   3.500000E+05,   2.631793E+03,   0.000000E+00
  4.000000E+05,   5.000000E+05,   4.500000E+05,   8.217549E+02,   0.000000E+00
  5.000000E+05,   8.000000E+05,   6.500000E+05,   1.082088E+02,   0.000000E+00
  8.000000E+05,   1.000000E+06,   0.000000E+00,   0.000000E+00,   0.000000E+00
'End of Block'
'*',    13,     3,     4,     0,     5,     5,    46,    -1
'OMNIDIRECTIONAL FLUENCE ANALYSIS'
'MULASSIS ml-v01-19'
'geant4-09-02-ref-00 (19-December-2008)'
'FLU_BDY', 1, 2, ' '
'FLU_PAR, -1, neutron '
'FLU_AMN', 1, 0., 'deg'
'FLU_AMX', 1, 90., 'deg'
'Elo','keV', 1, ' Lower edge of energy    bin '
'Eup','keV', 1, ' Upper edge of energy    bin '
'Emean','keV', 1, ' Mean energy of bin '
'Value','particles/cm2/bin',1,             'Fluence/flux'
'Error','particles/cm2/bin',1,'Error in   fluence/flux'
  0.000000E+00,   4.000000E+01,   2.000000E+01,   7.779121E+04,   0.000000E+00
  4.000000E+01,   1.000000E+02,   7.000000E+01,   1.166868E+05,   0.000000E+00
  1.000000E+02,   2.000000E+02,   1.500000E+02,   1.944780E+05,   0.000000E+00
  2.000000E+02,   3.000000E+02,   2.500000E+02,   1.944780E+05,   0.000000E+00
  3.000000E+02,   4.000000E+02,   3.500000E+02,   1.944780E+05,   0.000000E+00
  4.000000E+02,   5.000000E+02,   4.500000E+02,   1.944780E+05,   0.000000E+00
  5.000000E+02,   6.000000E+02,   5.500000E+02,   1.944780E+05,   0.000000E+00
  6.000000E+02,   7.000000E+02,   6.500000E+02,   1.944780E+05,   0.000000E+00
  7.000000E+02,   8.000000E+02,   7.500000E+02,   1.944780E+05,   0.000000E+00
  8.000000E+02,   1.000000E+03,   9.000000E+02,   3.889560E+05,   0.000000E+00
  1.000000E+03,   1.250000E+03,   1.125000E+03,   4.861950E+05,   0.000000E+00
  1.250000E+03,   1.500000E+03,   1.375000E+03,   4.861950E+05,   0.000000E+00
  1.500000E+03,   1.750000E+03,   1.625000E+03,   4.861950E+05,   0.000000E+00
  1.750000E+03,   2.000000E+03,   1.875000E+03,   4.861950E+05,   0.000000E+00
  2.000000E+03,   2.250000E+03,   2.125000E+03,   4.787757E+05,   0.000000E+00
  2.250000E+03,   2.500000E+03,   2.375000E+03,   4.346193E+05,   0.000000E+00
  2.500000E+03,   2.750000E+03,   2.625000E+03,   4.346193E+05,   0.000000E+00
  2.750000E+03,   3.000000E+03,   2.875000E+03,   4.346193E+05,   0.000000E+00
  3.000000E+03,   3.250000E+03,   3.125000E+03,   4.029223E+05,   0.000000E+00
  3.250000E+03,   3.500000E+03,   3.375000E+03,   3.876684E+05,   0.000000E+00
  3.500000E+03,   3.750000E+03,   3.625000E+03,   3.876684E+05,   0.000000E+00
  3.750000E+03,   4.000000E+03,   3.875000E+03,   3.722077E+05,   0.000000E+00
  4.000000E+03,   4.250000E+03,   4.125000E+03,   3.448390E+05,   0.000000E+00
  4.250000E+03,   4.500000E+03,   4.375000E+03,   3.371936E+05,   0.000000E+00
  4.500000E+03,   4.750000E+03,   4.625000E+03,   3.177451E+05,   0.000000E+00
  4.750000E+03,   5.000000E+03,   4.875000E+03,   2.878722E+05,   0.000000E+00
  5.000000E+03,   5.500000E+03,   5.250000E+03,   5.757444E+05,   0.000000E+00
  5.500000E+03,   6.000000E+03,   5.750000E+03,   5.445089E+05,   0.000000E+00
  6.000000E+03,   6.500000E+03,   6.250000E+03,   5.088439E+05,   0.000000E+00
  6.500000E+03,   7.000000E+03,   6.750000E+03,   4.489386E+05,   0.000000E+00
  7.000000E+03,   1.000000E+04,   8.500000E+03,   2.232985E+06,   0.000000E+00
  1.000000E+04,   2.000000E+04,   1.500000E+04,   4.034490E+06,   0.000000E+00
  2.000000E+04,   3.000000E+04,   2.500000E+04,   2.157290E+06,   0.000000E+00
  3.000000E+04,   4.000000E+04,   3.500000E+04,   1.464521E+06,   0.000000E+00
  4.000000E+04,   5.000000E+04,   4.500000E+04,   1.046128E+06,   0.000000E+00
  5.000000E+04,   6.000000E+04,   5.500000E+04,   7.918194E+05,   0.000000E+00
  6.000000E+04,   7.000000E+04,   6.500000E+04,   6.093381E+05,   0.000000E+00
  7.000000E+04,   8.000000E+04,   7.500000E+04,   4.842110E+05,   0.000000E+00
  8.000000E+04,   1.000000E+05,   9.000000E+04,   6.652780E+05,   0.000000E+00
  1.000000E+05,   1.500000E+05,   1.250000E+05,   8.950072E+05,   0.000000E+00
  1.500000E+05,   2.000000E+05,   1.750000E+05,   4.016354E+05,   0.000000E+00
  2.000000E+05,   3.000000E+05,   2.500000E+05,   2.582639E+05,   0.000000E+00
  3.000000E+05,   4.000000E+05,   3.500000E+05,   4.794294E+04,   0.000000E+00
  4.000000E+05,   5.000000E+05,   4.500000E+05,   1.100071E+04,   0.000000E+00
  5.000000E+05,   8.000000E+05,   6.500000E+05,   5.167090E+02,   0.000000E+00
  8.000000E+05,   1.000000E+06,   0.000000E+00,   0.000000E+00,   0.000000E+00
'End of File'
