'*',    13,     3,     4,     0,     5,     5,    46,     2
'OMNIDIRECTIONAL FLUENCE ANALYSIS'
'MULASSIS ml-v01-19'
'geant4-09-02-ref-00 (19-December-2008)'
'FLU_BDY', 1, 2, ' '
'FLU_PAR, -1, proton  '
'FLU_AMN', 1, 0., 'deg'
'FLU_AMX', 1, 90., 'deg'
'Elo','keV', 1, ' Lower edge of energy    bin '
'Eup','keV', 1, ' Upper edge of energy    bin '
'Emean','keV', 1, ' Mean energy of bin '
'Value','particles/cm2/bin',1,             'Fluence/flux'
'Error','particles/cm2/bin',1,'Error in   fluence/flux'
  0.000000E+00,   4.000000E+01,   2.000000E+01,   2.256990E+05,   0.000000E+00
  4.000000E+01,   1.000000E+02,   7.000000E+01,   3.385485E+05,   0.000000E+00
  1.000000E+02,   2.000000E+02,   1.500000E+02,   5.642474E+05,   0.000000E+00
  2.000000E+02,   3.000000E+02,   2.500000E+02,   5.642474E+05,   0.000000E+00
  3.000000E+02,   4.000000E+02,   3.500000E+02,   5.642474E+05,   0.000000E+00
  4.000000E+02,   5.000000E+02,   4.500000E+02,   5.642474E+05,   0.000000E+00
  5.000000E+02,   6.000000E+02,   5.500000E+02,   5.794573E+05,   0.000000E+00
  6.000000E+02,   7.000000E+02,   6.500000E+02,   6.670834E+05,   0.000000E+00
  7.000000E+02,   8.000000E+02,   7.500000E+02,   6.670834E+05,   0.000000E+00
  8.000000E+02,   1.000000E+03,   9.000000E+02,   1.510753E+06,   0.000000E+00
  1.000000E+03,   1.250000E+03,   1.125000E+03,   2.186844E+06,   0.000000E+00
  1.250000E+03,   1.500000E+03,   1.375000E+03,   2.599266E+06,   0.000000E+00
  1.500000E+03,   1.750000E+03,   1.625000E+03,   2.878941E+06,   0.000000E+00
  1.750000E+03,   2.000000E+03,   1.875000E+03,   3.368133E+06,   0.000000E+00
  2.000000E+03,   2.250000E+03,   2.125000E+03,   3.567557E+06,   0.000000E+00
  2.250000E+03,   2.500000E+03,   2.375000E+03,   3.903961E+06,   0.000000E+00
  2.500000E+03,   2.750000E+03,   2.625000E+03,   4.393464E+06,   0.000000E+00
  2.750000E+03,   3.000000E+03,   2.875000E+03,   4.571184E+06,   0.000000E+00
  3.000000E+03,   3.250000E+03,   3.125000E+03,   4.983110E+06,   0.000000E+00
  3.250000E+03,   3.500000E+03,   3.375000E+03,   5.386288E+06,   0.000000E+00
  3.500000E+03,   3.750000E+03,   3.625000E+03,   5.848639E+06,   0.000000E+00
  3.750000E+03,   4.000000E+03,   3.875000E+03,   6.013137E+06,   0.000000E+00
  4.000000E+03,   4.250000E+03,   4.125000E+03,   6.539091E+06,   0.000000E+00
  4.250000E+03,   4.500000E+03,   4.375000E+03,   7.119672E+06,   0.000000E+00
  4.500000E+03,   4.750000E+03,   4.625000E+03,   7.369428E+06,   0.000000E+00
  4.750000E+03,   5.000000E+03,   4.875000E+03,   7.869187E+06,   0.000000E+00
  5.000000E+03,   5.500000E+03,   5.250000E+03,   1.749453E+07,   0.000000E+00
  5.500000E+03,   6.000000E+03,   5.750000E+03,   1.955539E+07,   0.000000E+00
  6.000000E+03,   6.500000E+03,   6.250000E+03,   2.199495E+07,   0.000000E+00
  6.500000E+03,   7.000000E+03,   6.750000E+03,   2.553126E+07,   0.000000E+00
  7.000000E+03,   1.000000E+04,   8.500000E+03,   2.102218E+08,   0.000000E+00
  1.000000E+04,   2.000000E+04,   1.500000E+04,   7.542865E+08,   0.000000E+00
  2.000000E+04,   3.000000E+04,   2.500000E+04,   5.709426E+08,   0.000000E+00
  3.000000E+04,   4.000000E+04,   3.500000E+04,   4.331153E+08,   0.000000E+00
  4.000000E+04,   5.000000E+04,   4.500000E+04,   3.146474E+08,   0.000000E+00
  5.000000E+04,   6.000000E+04,   5.500000E+04,   2.381562E+08,   0.000000E+00
  6.000000E+04,   7.000000E+04,   6.500000E+04,   1.446575E+08,   0.000000E+00
  7.000000E+04,   8.000000E+04,   7.500000E+04,   1.225459E+08,   0.000000E+00
  8.000000E+04,   1.000000E+05,   9.000000E+04,   1.543797E+08,   0.000000E+00
  1.000000E+05,   1.500000E+05,   1.250000E+05,   1.320007E+08,   0.000000E+00
  1.500000E+05,   2.000000E+05,   1.750000E+05,   4.803384E+07,   0.000000E+00
  2.000000E+05,   3.000000E+05,   2.500000E+05,   3.638365E+07,   0.000000E+00
  3.000000E+05,   4.000000E+05,   3.500000E+05,   9.402956E+06,   0.000000E+00
  4.000000E+05,   5.000000E+05,   4.500000E+05,   2.402934E+06,   0.000000E+00
  5.000000E+05,   8.000000E+05,   6.500000E+05,   8.984008E+05,   0.000000E+00
  8.000000E+05,   1.000000E+06,   0.000000E+00,   0.000000E+00,   0.000000E+00
'End of Block'
'*',    13,     3,     4,     0,     5,     5,    46,     1
'OMNIDIRECTIONAL FLUENCE ANALYSIS'
'MULASSIS ml-v01-19'
'geant4-09-02-ref-00 (19-December-2008)'
'FLU_BDY', 1, 2, ' '
'FLU_PAR, -1, e-      '
'FLU_AMN', 1, 0., 'deg'
'FLU_AMX', 1, 90., 'deg'
'Elo','keV', 1, ' Lower edge of energy    bin '
'Eup','keV', 1, ' Upper edge of energy    bin '
'Emean','keV', 1, ' Mean energy of bin '
'Value','particles/cm2/bin',1,             'Fluence/flux'
'Error','particles/cm2/bin',1,'Error in   fluence/flux'
  0.000000E+00,   4.000000E+01,   2.000000E+01,   3.591993E+08,   0.000000E+00
  4.000000E+01,   1.000000E+02,   7.000000E+01,   3.767353E+07,   0.000000E+00
  1.000000E+02,   2.000000E+02,   1.500000E+02,   8.786577E+06,   0.000000E+00
  2.000000E+02,   3.000000E+02,   2.500000E+02,   1.696138E+06,   0.000000E+00
  3.000000E+02,   4.000000E+02,   3.500000E+02,   5.156599E+05,   0.000000E+00
  4.000000E+02,   5.000000E+02,   4.500000E+02,   1.935148E+05,   0.000000E+00
  5.000000E+02,   6.000000E+02,   5.500000E+02,   9.103738E+04,   0.000000E+00
  6.000000E+02,   7.000000E+02,   6.500000E+02,   4.797719E+04,   0.000000E+00
  7.000000E+02,   8.000000E+02,   7.500000E+02,   2.618021E+04,   0.000000E+00
  8.000000E+02,   1.000000E+03,   9.000000E+02,   2.534737E+04,   0.000000E+00
  1.000000E+03,   1.250000E+03,   1.125000E+03,   1.477093E+04,   0.000000E+00
  1.250000E+03,   1.500000E+03,   1.375000E+03,   1.048976E+04,   0.000000E+00
  1.500000E+03,   1.750000E+03,   1.625000E+03,   9.422780E+03,   0.000000E+00
  1.750000E+03,   2.000000E+03,   1.875000E+03,   9.179508E+03,   0.000000E+00
  2.000000E+03,   2.250000E+03,   2.125000E+03,   9.091578E+03,   0.000000E+00
  2.250000E+03,   2.500000E+03,   2.375000E+03,   9.046123E+03,   0.000000E+00
  2.500000E+03,   2.750000E+03,   2.625000E+03,   9.017580E+03,   0.000000E+00
  2.750000E+03,   3.000000E+03,   2.875000E+03,   9.010001E+03,   0.000000E+00
  3.000000E+03,   3.250000E+03,   3.125000E+03,   8.999186E+03,   0.000000E+00
  3.250000E+03,   3.500000E+03,   3.375000E+03,   8.993420E+03,   0.000000E+00
  3.500000E+03,   3.750000E+03,   3.625000E+03,   8.988852E+03,   0.000000E+00
  3.750000E+03,   4.000000E+03,   3.875000E+03,   8.988852E+03,   0.000000E+00
  4.000000E+03,   4.250000E+03,   4.125000E+03,   8.988852E+03,   0.000000E+00
  4.250000E+03,   4.500000E+03,   4.375000E+03,   8.988852E+03,   0.000000E+00
  4.500000E+03,   4.750000E+03,   4.625000E+03,   8.988852E+03,   0.000000E+00
  4.750000E+03,   5.000000E+03,   4.875000E+03,   8.988852E+03,   0.000000E+00
  5.000000E+03,   5.500000E+03,   5.250000E+03,   1.797770E+04,   0.000000E+00
  5.500000E+03,   6.000000E+03,   5.750000E+03,   1.797770E+04,   0.000000E+00
  6.000000E+03,   6.500000E+03,   6.250000E+03,   1.797770E+04,   0.000000E+00
  6.500000E+03,   7.000000E+03,   6.750000E+03,   1.797770E+04,   0.000000E+00
  7.000000E+03,   1.000000E+04,   8.500000E+03,   1.078662E+05,   0.000000E+00
  1.000000E+04,   2.000000E+04,   1.500000E+04,   3.595541E+05,   0.000000E+00
  2.000000E+04,   3.000000E+04,   2.500000E+04,   2.110543E+05,   0.000000E+00
  3.000000E+04,   4.000000E+04,   3.500000E+04,   6.759775E+04,   0.000000E+00
  4.000000E+04,   5.000000E+04,   4.500000E+04,   2.820721E+04,   0.000000E+00
  5.000000E+04,   6.000000E+04,   5.500000E+04,   1.475925E+04,   0.000000E+00
  6.000000E+04,   7.000000E+04,   6.500000E+04,   8.419494E+03,   0.000000E+00
  7.000000E+04,   8.000000E+04,   7.500000E+04,   4.782396E+03,   0.000000E+00
  8.000000E+04,   1.000000E+05,   9.000000E+04,   5.029383E+03,   0.000000E+00
  1.000000E+05,   1.500000E+05,   1.250000E+05,   4.538362E+03,   0.000000E+00
  1.500000E+05,   2.000000E+05,   1.750000E+05,   1.265176E+03,   0.000000E+00
  2.000000E+05,   3.000000E+05,   2.500000E+05,   6.534943E+02,   0.000000E+00
  3.000000E+05,   4.000000E+05,   3.500000E+05,   1.744733E+02,   0.000000E+00
  4.000000E+05,   5.000000E+05,   4.500000E+05,   5.200893E+01,   0.000000E+00
  5.000000E+05,   8.000000E+05,   6.500000E+05,   6.727132E+00,   0.000000E+00
  8.000000E+05,   1.000000E+06,   0.000000E+00,   0.000000E+00,   0.000000E+00
'End of Block'
'*',    13,     3,     4,     0,     5,     5,    46,    -1
'OMNIDIRECTIONAL FLUENCE ANALYSIS'
'MULASSIS ml-v01-19'
'geant4-09-02-ref-00 (19-December-2008)'
'FLU_BDY', 1, 2, ' '
'FLU_PAR, -1, neutron '
'FLU_AMN', 1, 0., 'deg'
'FLU_AMX', 1, 90., 'deg'
'Elo','keV', 1, ' Lower edge of energy    bin '
'Eup','keV', 1, ' Upper edge of energy    bin '
'Emean','keV', 1, ' Mean energy of bin '
'Value','particles/cm2/bin',1,             'Fluence/flux'
'Error','particles/cm2/bin',1,'Error in   fluence/flux'
  0.000000E+00,   4.000000E+01,   2.000000E+01,   2.316070E+05,   0.000000E+00
  4.000000E+01,   1.000000E+02,   7.000000E+01,   3.474106E+05,   0.000000E+00
  1.000000E+02,   2.000000E+02,   1.500000E+02,   5.790176E+05,   0.000000E+00
  2.000000E+02,   3.000000E+02,   2.500000E+02,   5.790176E+05,   0.000000E+00
  3.000000E+02,   4.000000E+02,   3.500000E+02,   5.790176E+05,   0.000000E+00
  4.000000E+02,   5.000000E+02,   4.500000E+02,   5.790176E+05,   0.000000E+00
  5.000000E+02,   6.000000E+02,   5.500000E+02,   5.763834E+05,   0.000000E+00
  6.000000E+02,   7.000000E+02,   6.500000E+02,   5.612076E+05,   0.000000E+00
  7.000000E+02,   8.000000E+02,   7.500000E+02,   5.612076E+05,   0.000000E+00
  8.000000E+02,   1.000000E+03,   9.000000E+02,   1.091846E+06,   0.000000E+00
  1.000000E+03,   1.250000E+03,   1.125000E+03,   1.313983E+06,   0.000000E+00
  1.250000E+03,   1.500000E+03,   1.375000E+03,   1.244275E+06,   0.000000E+00
  1.500000E+03,   1.750000E+03,   1.625000E+03,   1.188584E+06,   0.000000E+00
  1.750000E+03,   2.000000E+03,   1.875000E+03,   1.101093E+06,   0.000000E+00
  2.000000E+03,   2.250000E+03,   2.125000E+03,   1.044476E+06,   0.000000E+00
  2.250000E+03,   2.500000E+03,   2.375000E+03,   9.840155E+05,   0.000000E+00
  2.500000E+03,   2.750000E+03,   2.625000E+03,   9.037822E+05,   0.000000E+00
  2.750000E+03,   3.000000E+03,   2.875000E+03,   8.660723E+05,   0.000000E+00
  3.000000E+03,   3.250000E+03,   3.125000E+03,   7.976338E+05,   0.000000E+00
  3.250000E+03,   3.500000E+03,   3.375000E+03,   7.478949E+05,   0.000000E+00
  3.500000E+03,   3.750000E+03,   3.625000E+03,   7.046451E+05,   0.000000E+00
  3.750000E+03,   4.000000E+03,   3.875000E+03,   6.643067E+05,   0.000000E+00
  4.000000E+03,   4.250000E+03,   4.125000E+03,   6.256992E+05,   0.000000E+00
  4.250000E+03,   4.500000E+03,   4.375000E+03,   5.791292E+05,   0.000000E+00
  4.500000E+03,   4.750000E+03,   4.625000E+03,   5.572516E+05,   0.000000E+00
  4.750000E+03,   5.000000E+03,   4.875000E+03,   5.182974E+05,   0.000000E+00
  5.000000E+03,   5.500000E+03,   5.250000E+03,   9.574446E+05,   0.000000E+00
  5.500000E+03,   6.000000E+03,   5.750000E+03,   8.647866E+05,   0.000000E+00
  6.000000E+03,   6.500000E+03,   6.250000E+03,   7.677137E+05,   0.000000E+00
  6.500000E+03,   7.000000E+03,   6.750000E+03,   6.955378E+05,   0.000000E+00
  7.000000E+03,   1.000000E+04,   8.500000E+03,   3.083213E+06,   0.000000E+00
  1.000000E+04,   2.000000E+04,   1.500000E+04,   4.755794E+06,   0.000000E+00
  2.000000E+04,   3.000000E+04,   2.500000E+04,   2.117422E+06,   0.000000E+00
  3.000000E+04,   4.000000E+04,   3.500000E+04,   1.162319E+06,   0.000000E+00
  4.000000E+04,   5.000000E+04,   4.500000E+04,   6.945611E+05,   0.000000E+00
  5.000000E+04,   6.000000E+04,   5.500000E+04,   4.351358E+05,   0.000000E+00
  6.000000E+04,   7.000000E+04,   6.500000E+04,   2.788987E+05,   0.000000E+00
  7.000000E+04,   8.000000E+04,   7.500000E+04,   1.870949E+05,   0.000000E+00
  8.000000E+04,   1.000000E+05,   9.000000E+04,   2.296019E+05,   0.000000E+00
  1.000000E+05,   1.500000E+05,   1.250000E+05,   2.626574E+05,   0.000000E+00
  1.500000E+05,   2.000000E+05,   1.750000E+05,   1.030953E+05,   0.000000E+00
  2.000000E+05,   3.000000E+05,   2.500000E+05,   6.374651E+04,   0.000000E+00
  3.000000E+05,   4.000000E+05,   3.500000E+05,   1.080212E+04,   0.000000E+00
  4.000000E+05,   5.000000E+05,   4.500000E+05,   2.480969E+03,   0.000000E+00
  5.000000E+05,   8.000000E+05,   6.500000E+05,   2.030434E+02,   0.000000E+00
  8.000000E+05,   1.000000E+06,   0.000000E+00,   0.000000E+00,   0.000000E+00
'End of File'
