'*',    13,     3,     4,     0,     5,     5,    46,     2
'OMNIDIRECTIONAL FLUENCE ANALYSIS'
'MULASSIS ml-v01-19'
'geant4-09-02-ref-00 (19-December-2008)'
'FLU_BDY', 1, 2, ' '
'FLU_PAR, -1, proton  '
'FLU_AMN', 1, 0., 'deg'
'FLU_AMX', 1, 90., 'deg'
'Elo','keV', 1, ' Lower edge of energy    bin '
'Eup','keV', 1, ' Upper edge of energy    bin '
'Emean','keV', 1, ' Mean energy of bin '
'Value','particles/cm2/bin',1,             'Fluence/flux'
'Error','particles/cm2/bin',1,'Error in   fluence/flux'
  0.000000E+00,   4.000000E+01,   2.000000E+01,   2.244381E+05,   0.000000E+00
  4.000000E+01,   1.000000E+02,   7.000000E+01,   3.366572E+05,   0.000000E+00
  1.000000E+02,   2.000000E+02,   1.500000E+02,   5.610953E+05,   0.000000E+00
  2.000000E+02,   3.000000E+02,   2.500000E+02,   5.610953E+05,   0.000000E+00
  3.000000E+02,   4.000000E+02,   3.500000E+02,   5.610953E+05,   0.000000E+00
  4.000000E+02,   5.000000E+02,   4.500000E+02,   5.610953E+05,   0.000000E+00
  5.000000E+02,   6.000000E+02,   5.500000E+02,   5.762163E+05,   0.000000E+00
  6.000000E+02,   7.000000E+02,   6.500000E+02,   6.633302E+05,   0.000000E+00
  7.000000E+02,   8.000000E+02,   7.500000E+02,   6.633302E+05,   0.000000E+00
  8.000000E+02,   1.000000E+03,   9.000000E+02,   1.502315E+06,   0.000000E+00
  1.000000E+03,   1.250000E+03,   1.125000E+03,   2.174628E+06,   0.000000E+00
  1.250000E+03,   1.500000E+03,   1.375000E+03,   2.584699E+06,   0.000000E+00
  1.500000E+03,   1.750000E+03,   1.625000E+03,   2.862831E+06,   0.000000E+00
  1.750000E+03,   2.000000E+03,   1.875000E+03,   3.349274E+06,   0.000000E+00
  2.000000E+03,   2.250000E+03,   2.125000E+03,   3.547588E+06,   0.000000E+00
  2.250000E+03,   2.500000E+03,   2.375000E+03,   3.882075E+06,   0.000000E+00
  2.500000E+03,   2.750000E+03,   2.625000E+03,   4.368882E+06,   0.000000E+00
  2.750000E+03,   3.000000E+03,   2.875000E+03,   4.545589E+06,   0.000000E+00
  3.000000E+03,   3.250000E+03,   3.125000E+03,   4.955154E+06,   0.000000E+00
  3.250000E+03,   3.500000E+03,   3.375000E+03,   5.356142E+06,   0.000000E+00
  3.500000E+03,   3.750000E+03,   3.625000E+03,   5.815847E+06,   0.000000E+00
  3.750000E+03,   4.000000E+03,   3.875000E+03,   5.979418E+06,   0.000000E+00
  4.000000E+03,   4.250000E+03,   4.125000E+03,   6.502408E+06,   0.000000E+00
  4.250000E+03,   4.500000E+03,   4.375000E+03,   7.079765E+06,   0.000000E+00
  4.500000E+03,   4.750000E+03,   4.625000E+03,   7.328086E+06,   0.000000E+00
  4.750000E+03,   5.000000E+03,   4.875000E+03,   7.824969E+06,   0.000000E+00
  5.000000E+03,   5.500000E+03,   5.250000E+03,   1.739632E+07,   0.000000E+00
  5.500000E+03,   6.000000E+03,   5.750000E+03,   1.944550E+07,   0.000000E+00
  6.000000E+03,   6.500000E+03,   6.250000E+03,   2.187122E+07,   0.000000E+00
  6.500000E+03,   7.000000E+03,   6.750000E+03,   2.538754E+07,   0.000000E+00
  7.000000E+03,   1.000000E+04,   8.500000E+03,   2.090402E+08,   0.000000E+00
  1.000000E+04,   2.000000E+04,   1.500000E+04,   7.500999E+08,   0.000000E+00
  2.000000E+04,   3.000000E+04,   2.500000E+04,   5.677443E+08,   0.000000E+00
  3.000000E+04,   4.000000E+04,   3.500000E+04,   4.306937E+08,   0.000000E+00
  4.000000E+04,   5.000000E+04,   4.500000E+04,   3.128654E+08,   0.000000E+00
  5.000000E+04,   6.000000E+04,   5.500000E+04,   2.368108E+08,   0.000000E+00
  6.000000E+04,   7.000000E+04,   6.500000E+04,   1.438521E+08,   0.000000E+00
  7.000000E+04,   8.000000E+04,   7.500000E+04,   1.218607E+08,   0.000000E+00
  8.000000E+04,   1.000000E+05,   9.000000E+04,   1.535129E+08,   0.000000E+00
  1.000000E+05,   1.500000E+05,   1.250000E+05,   1.312606E+08,   0.000000E+00
  1.500000E+05,   2.000000E+05,   1.750000E+05,   4.776308E+07,   0.000000E+00
  2.000000E+05,   3.000000E+05,   2.500000E+05,   3.618006E+07,   0.000000E+00
  3.000000E+05,   4.000000E+05,   3.500000E+05,   9.349715E+06,   0.000000E+00
  4.000000E+05,   5.000000E+05,   4.500000E+05,   2.389717E+06,   0.000000E+00
  5.000000E+05,   8.000000E+05,   6.500000E+05,   8.933589E+05,   0.000000E+00
  8.000000E+05,   1.000000E+06,   0.000000E+00,   0.000000E+00,   0.000000E+00
'End of Block'
'*',    13,     3,     4,     0,     5,     5,    46,     1
'OMNIDIRECTIONAL FLUENCE ANALYSIS'
'MULASSIS ml-v01-19'
'geant4-09-02-ref-00 (19-December-2008)'
'FLU_BDY', 1, 2, ' '
'FLU_PAR, -1, e-      '
'FLU_AMN', 1, 0., 'deg'
'FLU_AMX', 1, 90., 'deg'
'Elo','keV', 1, ' Lower edge of energy    bin '
'Eup','keV', 1, ' Upper edge of energy    bin '
'Emean','keV', 1, ' Mean energy of bin '
'Value','particles/cm2/bin',1,             'Fluence/flux'
'Error','particles/cm2/bin',1,'Error in   fluence/flux'
  0.000000E+00,   4.000000E+01,   2.000000E+01,   1.351666E+11,   0.000000E+00
  4.000000E+01,   1.000000E+02,   7.000000E+01,   1.470380E+11,   0.000000E+00
  1.000000E+02,   2.000000E+02,   1.500000E+02,   2.132334E+11,   0.000000E+00
  2.000000E+02,   3.000000E+02,   2.500000E+02,   2.611403E+11,   0.000000E+00
  3.000000E+02,   4.000000E+02,   3.500000E+02,   3.141684E+11,   0.000000E+00
  4.000000E+02,   5.000000E+02,   4.500000E+02,   3.475975E+11,   0.000000E+00
  5.000000E+02,   6.000000E+02,   5.500000E+02,   3.532624E+11,   0.000000E+00
  6.000000E+02,   7.000000E+02,   6.500000E+02,   3.307204E+11,   0.000000E+00
  7.000000E+02,   8.000000E+02,   7.500000E+02,   2.998646E+11,   0.000000E+00
  8.000000E+02,   1.000000E+03,   9.000000E+02,   5.101679E+11,   0.000000E+00
  1.000000E+03,   1.250000E+03,   1.125000E+03,   4.985655E+11,   0.000000E+00
  1.250000E+03,   1.500000E+03,   1.375000E+03,   3.337009E+11,   0.000000E+00
  1.500000E+03,   1.750000E+03,   1.625000E+03,   1.882031E+11,   0.000000E+00
  1.750000E+03,   2.000000E+03,   1.875000E+03,   1.001004E+11,   0.000000E+00
  2.000000E+03,   2.250000E+03,   2.125000E+03,   5.683937E+10,   0.000000E+00
  2.250000E+03,   2.500000E+03,   2.375000E+03,   3.123393E+10,   0.000000E+00
  2.500000E+03,   2.750000E+03,   2.625000E+03,   1.855652E+10,   0.000000E+00
  2.750000E+03,   3.000000E+03,   2.875000E+03,   1.139715E+10,   0.000000E+00
  3.000000E+03,   3.250000E+03,   3.125000E+03,   6.274673E+09,   0.000000E+00
  3.250000E+03,   3.500000E+03,   3.375000E+03,   3.333091E+09,   0.000000E+00
  3.500000E+03,   3.750000E+03,   3.625000E+03,   1.797728E+09,   0.000000E+00
  3.750000E+03,   4.000000E+03,   3.875000E+03,   8.348467E+08,   0.000000E+00
  4.000000E+03,   4.250000E+03,   4.125000E+03,   2.323691E+08,   0.000000E+00
  4.250000E+03,   4.500000E+03,   4.375000E+03,   3.884495E+07,   0.000000E+00
  4.500000E+03,   4.750000E+03,   4.625000E+03,   1.100556E+06,   0.000000E+00
  4.750000E+03,   5.000000E+03,   4.875000E+03,   9.276954E+03,   0.000000E+00
  5.000000E+03,   5.500000E+03,   5.250000E+03,   1.787714E+04,   0.000000E+00
  5.500000E+03,   6.000000E+03,   5.750000E+03,   1.787714E+04,   0.000000E+00
  6.000000E+03,   6.500000E+03,   6.250000E+03,   1.787714E+04,   0.000000E+00
  6.500000E+03,   7.000000E+03,   6.750000E+03,   1.787714E+04,   0.000000E+00
  7.000000E+03,   1.000000E+04,   8.500000E+03,   1.072628E+05,   0.000000E+00
  1.000000E+04,   2.000000E+04,   1.500000E+04,   3.575428E+05,   0.000000E+00
  2.000000E+04,   3.000000E+04,   2.500000E+04,   2.098771E+05,   0.000000E+00
  3.000000E+04,   4.000000E+04,   3.500000E+04,   6.721881E+04,   0.000000E+00
  4.000000E+04,   5.000000E+04,   4.500000E+04,   2.804853E+04,   0.000000E+00
  5.000000E+04,   6.000000E+04,   5.500000E+04,   1.467600E+04,   0.000000E+00
  6.000000E+04,   7.000000E+04,   6.500000E+04,   8.372458E+03,   0.000000E+00
  7.000000E+04,   8.000000E+04,   7.500000E+04,   4.755605E+03,   0.000000E+00
  8.000000E+04,   1.000000E+05,   9.000000E+04,   5.001145E+03,   0.000000E+00
  1.000000E+05,   1.500000E+05,   1.250000E+05,   4.512914E+03,   0.000000E+00
  1.500000E+05,   2.000000E+05,   1.750000E+05,   1.258065E+03,   0.000000E+00
  2.000000E+05,   3.000000E+05,   2.500000E+05,   6.498285E+02,   0.000000E+00
  3.000000E+05,   4.000000E+05,   3.500000E+05,   1.734905E+02,   0.000000E+00
  4.000000E+05,   5.000000E+05,   4.500000E+05,   5.171915E+01,   0.000000E+00
  5.000000E+05,   8.000000E+05,   6.500000E+05,   6.689379E+00,   0.000000E+00
  8.000000E+05,   1.000000E+06,   0.000000E+00,   0.000000E+00,   0.000000E+00
'End of Block'
'*',    13,     3,     4,     0,     5,     5,    46,    -1
'OMNIDIRECTIONAL FLUENCE ANALYSIS'
'MULASSIS ml-v01-19'
'geant4-09-02-ref-00 (19-December-2008)'
'FLU_BDY', 1, 2, ' '
'FLU_PAR, -1, neutron '
'FLU_AMN', 1, 0., 'deg'
'FLU_AMX', 1, 90., 'deg'
'Elo','keV', 1, ' Lower edge of energy    bin '
'Eup','keV', 1, ' Upper edge of energy    bin '
'Emean','keV', 1, ' Mean energy of bin '
'Value','particles/cm2/bin',1,             'Fluence/flux'
'Error','particles/cm2/bin',1,'Error in   fluence/flux'
  0.000000E+00,   4.000000E+01,   2.000000E+01,   2.303109E+05,   0.000000E+00
  4.000000E+01,   1.000000E+02,   7.000000E+01,   3.454663E+05,   0.000000E+00
  1.000000E+02,   2.000000E+02,   1.500000E+02,   5.757772E+05,   0.000000E+00
  2.000000E+02,   3.000000E+02,   2.500000E+02,   5.757772E+05,   0.000000E+00
  3.000000E+02,   4.000000E+02,   3.500000E+02,   5.757772E+05,   0.000000E+00
  4.000000E+02,   5.000000E+02,   4.500000E+02,   5.757772E+05,   0.000000E+00
  5.000000E+02,   6.000000E+02,   5.500000E+02,   5.731584E+05,   0.000000E+00
  6.000000E+02,   7.000000E+02,   6.500000E+02,   5.580713E+05,   0.000000E+00
  7.000000E+02,   8.000000E+02,   7.500000E+02,   5.580713E+05,   0.000000E+00
  8.000000E+02,   1.000000E+03,   9.000000E+02,   1.085735E+06,   0.000000E+00
  1.000000E+03,   1.250000E+03,   1.125000E+03,   1.306628E+06,   0.000000E+00
  1.250000E+03,   1.500000E+03,   1.375000E+03,   1.237317E+06,   0.000000E+00
  1.500000E+03,   1.750000E+03,   1.625000E+03,   1.181934E+06,   0.000000E+00
  1.750000E+03,   2.000000E+03,   1.875000E+03,   1.094932E+06,   0.000000E+00
  2.000000E+03,   2.250000E+03,   2.125000E+03,   1.038630E+06,   0.000000E+00
  2.250000E+03,   2.500000E+03,   2.375000E+03,   9.785100E+05,   0.000000E+00
  2.500000E+03,   2.750000E+03,   2.625000E+03,   8.987186E+05,   0.000000E+00
  2.750000E+03,   3.000000E+03,   2.875000E+03,   8.612170E+05,   0.000000E+00
  3.000000E+03,   3.250000E+03,   3.125000E+03,   7.931688E+05,   0.000000E+00
  3.250000E+03,   3.500000E+03,   3.375000E+03,   7.437071E+05,   0.000000E+00
  3.500000E+03,   3.750000E+03,   3.625000E+03,   7.007024E+05,   0.000000E+00
  3.750000E+03,   4.000000E+03,   3.875000E+03,   6.605899E+05,   0.000000E+00
  4.000000E+03,   4.250000E+03,   4.125000E+03,   6.221976E+05,   0.000000E+00
  4.250000E+03,   4.500000E+03,   4.375000E+03,   5.758854E+05,   0.000000E+00
  4.500000E+03,   4.750000E+03,   4.625000E+03,   5.541312E+05,   0.000000E+00
  4.750000E+03,   5.000000E+03,   4.875000E+03,   5.153964E+05,   0.000000E+00
  5.000000E+03,   5.500000E+03,   5.250000E+03,   9.520778E+05,   0.000000E+00
  5.500000E+03,   6.000000E+03,   5.750000E+03,   8.599322E+05,   0.000000E+00
  6.000000E+03,   6.500000E+03,   6.250000E+03,   7.634067E+05,   0.000000E+00
  6.500000E+03,   7.000000E+03,   6.750000E+03,   6.916386E+05,   0.000000E+00
  7.000000E+03,   1.000000E+04,   8.500000E+03,   3.065925E+06,   0.000000E+00
  1.000000E+04,   2.000000E+04,   1.500000E+04,   4.729099E+06,   0.000000E+00
  2.000000E+04,   3.000000E+04,   2.500000E+04,   2.105527E+06,   0.000000E+00
  3.000000E+04,   4.000000E+04,   3.500000E+04,   1.155787E+06,   0.000000E+00
  4.000000E+04,   5.000000E+04,   4.500000E+04,   6.906665E+05,   0.000000E+00
  5.000000E+04,   6.000000E+04,   5.500000E+04,   4.326979E+05,   0.000000E+00
  6.000000E+04,   7.000000E+04,   6.500000E+04,   2.773342E+05,   0.000000E+00
  7.000000E+04,   8.000000E+04,   7.500000E+04,   1.860440E+05,   0.000000E+00
  8.000000E+04,   1.000000E+05,   9.000000E+04,   2.283123E+05,   0.000000E+00
  1.000000E+05,   1.500000E+05,   1.250000E+05,   2.611840E+05,   0.000000E+00
  1.500000E+05,   2.000000E+05,   1.750000E+05,   1.025170E+05,   0.000000E+00
  2.000000E+05,   3.000000E+05,   2.500000E+05,   6.338929E+04,   0.000000E+00
  3.000000E+05,   4.000000E+05,   3.500000E+05,   1.074121E+04,   0.000000E+00
  4.000000E+05,   5.000000E+05,   4.500000E+05,   2.467137E+03,   0.000000E+00
  5.000000E+05,   8.000000E+05,   6.500000E+05,   2.019039E+02,   0.000000E+00
  8.000000E+05,   1.000000E+06,   0.000000E+00,   0.000000E+00,   0.000000E+00
'End of File'
