'*',    13,     3,     4,     0,     5,     5,    46,     2
'OMNIDIRECTIONAL FLUENCE ANALYSIS'
'MULASSIS ml-v01-19'
'geant4-09-02-ref-00 (19-December-2008)'
'FLU_BDY', 1, 2, ' '
'FLU_PAR, -1, proton  '
'FLU_AMN', 1, 0., 'deg'
'FLU_AMX', 1, 90., 'deg'
'Elo','keV', 1, ' Lower edge of energy    bin '
'Eup','keV', 1, ' Upper edge of energy    bin '
'Emean','keV', 1, ' Mean energy of bin '
'Value','particles/cm2/bin',1,             'Fluence/flux'
'Error','particles/cm2/bin',1,'Error in   fluence/flux'
  0.000000E+00,   4.000000E+01,   2.000000E+01,   1.589266E+05,   0.000000E+00
  4.000000E+01,   1.000000E+02,   7.000000E+01,   2.383899E+05,   0.000000E+00
  1.000000E+02,   2.000000E+02,   1.500000E+02,   3.973165E+05,   0.000000E+00
  2.000000E+02,   3.000000E+02,   2.500000E+02,   3.973165E+05,   0.000000E+00
  3.000000E+02,   4.000000E+02,   3.500000E+02,   3.973165E+05,   0.000000E+00
  4.000000E+02,   5.000000E+02,   4.500000E+02,   3.973165E+05,   0.000000E+00
  5.000000E+02,   6.000000E+02,   5.500000E+02,   4.032546E+05,   0.000000E+00
  6.000000E+02,   7.000000E+02,   6.500000E+02,   4.374647E+05,   0.000000E+00
  7.000000E+02,   8.000000E+02,   7.500000E+02,   4.374647E+05,   0.000000E+00
  8.000000E+02,   1.000000E+03,   9.000000E+02,   9.482924E+05,   0.000000E+00
  1.000000E+03,   1.250000E+03,   1.125000E+03,   1.313591E+06,   0.000000E+00
  1.250000E+03,   1.500000E+03,   1.375000E+03,   1.496757E+06,   0.000000E+00
  1.500000E+03,   1.750000E+03,   1.625000E+03,   1.653691E+06,   0.000000E+00
  1.750000E+03,   2.000000E+03,   1.875000E+03,   1.887720E+06,   0.000000E+00
  2.000000E+03,   2.250000E+03,   2.125000E+03,   2.005055E+06,   0.000000E+00
  2.250000E+03,   2.500000E+03,   2.375000E+03,   2.174870E+06,   0.000000E+00
  2.500000E+03,   2.750000E+03,   2.625000E+03,   2.412544E+06,   0.000000E+00
  2.750000E+03,   3.000000E+03,   2.875000E+03,   2.510705E+06,   0.000000E+00
  3.000000E+03,   3.250000E+03,   3.125000E+03,   2.744459E+06,   0.000000E+00
  3.250000E+03,   3.500000E+03,   3.375000E+03,   2.943119E+06,   0.000000E+00
  3.500000E+03,   3.750000E+03,   3.625000E+03,   3.165492E+06,   0.000000E+00
  3.750000E+03,   4.000000E+03,   3.875000E+03,   3.277962E+06,   0.000000E+00
  4.000000E+03,   4.250000E+03,   4.125000E+03,   3.522906E+06,   0.000000E+00
  4.250000E+03,   4.500000E+03,   4.375000E+03,   3.805928E+06,   0.000000E+00
  4.500000E+03,   4.750000E+03,   4.625000E+03,   3.946256E+06,   0.000000E+00
  4.750000E+03,   5.000000E+03,   4.875000E+03,   4.207381E+06,   0.000000E+00
  5.000000E+03,   5.500000E+03,   5.250000E+03,   9.226396E+06,   0.000000E+00
  5.500000E+03,   6.000000E+03,   5.750000E+03,   1.019276E+07,   0.000000E+00
  6.000000E+03,   6.500000E+03,   6.250000E+03,   1.137839E+07,   0.000000E+00
  6.500000E+03,   7.000000E+03,   6.750000E+03,   1.294509E+07,   0.000000E+00
  7.000000E+03,   1.000000E+04,   8.500000E+03,   1.044805E+08,   0.000000E+00
  1.000000E+04,   2.000000E+04,   1.500000E+04,   4.451473E+08,   0.000000E+00
  2.000000E+04,   3.000000E+04,   2.500000E+04,   4.980922E+08,   0.000000E+00
  3.000000E+04,   4.000000E+04,   3.500000E+04,   5.501073E+08,   0.000000E+00
  4.000000E+04,   5.000000E+04,   4.500000E+04,   5.844553E+08,   0.000000E+00
  5.000000E+04,   6.000000E+04,   5.500000E+04,   6.377347E+08,   0.000000E+00
  6.000000E+04,   7.000000E+04,   6.500000E+04,   5.640213E+08,   0.000000E+00
  7.000000E+04,   8.000000E+04,   7.500000E+04,   5.965794E+08,   0.000000E+00
  8.000000E+04,   1.000000E+05,   9.000000E+04,   1.047930E+09,   0.000000E+00
  1.000000E+05,   1.500000E+05,   1.250000E+05,   1.603371E+09,   0.000000E+00
  1.500000E+05,   2.000000E+05,   1.750000E+05,   8.997086E+08,   0.000000E+00
  2.000000E+05,   3.000000E+05,   2.500000E+05,   8.279258E+08,   0.000000E+00
  3.000000E+05,   4.000000E+05,   3.500000E+05,   1.948827E+08,   0.000000E+00
  4.000000E+05,   5.000000E+05,   4.500000E+05,   5.910660E+05,   0.000000E+00
  5.000000E+05,   8.000000E+05,   6.500000E+05,   2.258291E+05,   0.000000E+00
  8.000000E+05,   1.000000E+06,   0.000000E+00,   0.000000E+00,   0.000000E+00
'End of Block'
'*',    13,     3,     4,     0,     5,     5,    46,     1
'OMNIDIRECTIONAL FLUENCE ANALYSIS'
'MULASSIS ml-v01-19'
'geant4-09-02-ref-00 (19-December-2008)'
'FLU_BDY', 1, 2, ' '
'FLU_PAR, -1, e-      '
'FLU_AMN', 1, 0., 'deg'
'FLU_AMX', 1, 90., 'deg'
'Elo','keV', 1, ' Lower edge of energy    bin '
'Eup','keV', 1, ' Upper edge of energy    bin '
'Emean','keV', 1, ' Mean energy of bin '
'Value','particles/cm2/bin',1,             'Fluence/flux'
'Error','particles/cm2/bin',1,'Error in   fluence/flux'
  0.000000E+00,   4.000000E+01,   2.000000E+01,   1.968297E+09,   0.000000E+00
  4.000000E+01,   1.000000E+02,   7.000000E+01,   1.992069E+09,   0.000000E+00
  1.000000E+02,   2.000000E+02,   1.500000E+02,   2.472248E+09,   0.000000E+00
  2.000000E+02,   3.000000E+02,   2.500000E+02,   2.624609E+09,   0.000000E+00
  3.000000E+02,   4.000000E+02,   3.500000E+02,   3.042959E+09,   0.000000E+00
  4.000000E+02,   5.000000E+02,   4.500000E+02,   3.439992E+09,   0.000000E+00
  5.000000E+02,   6.000000E+02,   5.500000E+02,   3.708259E+09,   0.000000E+00
  6.000000E+02,   7.000000E+02,   6.500000E+02,   3.806493E+09,   0.000000E+00
  7.000000E+02,   8.000000E+02,   7.500000E+02,   3.812673E+09,   0.000000E+00
  8.000000E+02,   1.000000E+03,   9.000000E+02,   7.157229E+09,   0.000000E+00
  1.000000E+03,   1.250000E+03,   1.125000E+03,   7.684334E+09,   0.000000E+00
  1.250000E+03,   1.500000E+03,   1.375000E+03,   6.007361E+09,   0.000000E+00
  1.500000E+03,   1.750000E+03,   1.625000E+03,   4.524289E+09,   0.000000E+00
  1.750000E+03,   2.000000E+03,   1.875000E+03,   3.156859E+09,   0.000000E+00
  2.000000E+03,   2.250000E+03,   2.125000E+03,   1.939711E+09,   0.000000E+00
  2.250000E+03,   2.500000E+03,   2.375000E+03,   1.111982E+09,   0.000000E+00
  2.500000E+03,   2.750000E+03,   2.625000E+03,   6.264415E+08,   0.000000E+00
  2.750000E+03,   3.000000E+03,   2.875000E+03,   3.629302E+08,   0.000000E+00
  3.000000E+03,   3.250000E+03,   3.125000E+03,   2.052701E+08,   0.000000E+00
  3.250000E+03,   3.500000E+03,   3.375000E+03,   1.138244E+08,   0.000000E+00
  3.500000E+03,   3.750000E+03,   3.625000E+03,   6.052186E+07,   0.000000E+00
  3.750000E+03,   4.000000E+03,   3.875000E+03,   3.183002E+07,   0.000000E+00
  4.000000E+03,   4.250000E+03,   4.125000E+03,   1.634180E+07,   0.000000E+00
  4.250000E+03,   4.500000E+03,   4.375000E+03,   8.075267E+06,   0.000000E+00
  4.500000E+03,   4.750000E+03,   4.625000E+03,   3.710469E+06,   0.000000E+00
  4.750000E+03,   5.000000E+03,   4.875000E+03,   1.560516E+06,   0.000000E+00
  5.000000E+03,   5.500000E+03,   5.250000E+03,   7.239336E+05,   0.000000E+00
  5.500000E+03,   6.000000E+03,   5.750000E+03,   2.007741E+04,   0.000000E+00
  6.000000E+03,   6.500000E+03,   6.250000E+03,   1.253608E+04,   0.000000E+00
  6.500000E+03,   7.000000E+03,   6.750000E+03,   1.253608E+04,   0.000000E+00
  7.000000E+03,   1.000000E+04,   8.500000E+03,   7.521649E+04,   0.000000E+00
  1.000000E+04,   2.000000E+04,   1.500000E+04,   2.507216E+05,   0.000000E+00
  2.000000E+04,   3.000000E+04,   2.500000E+04,   1.897301E+05,   0.000000E+00
  3.000000E+04,   4.000000E+04,   3.500000E+04,   1.157611E+05,   0.000000E+00
  4.000000E+04,   5.000000E+04,   4.500000E+04,   8.208620E+04,   0.000000E+00
  5.000000E+04,   6.000000E+04,   5.500000E+04,   6.315524E+04,   0.000000E+00
  6.000000E+04,   7.000000E+04,   6.500000E+04,   4.962386E+04,   0.000000E+00
  7.000000E+04,   8.000000E+04,   7.500000E+04,   3.755881E+04,   0.000000E+00
  8.000000E+04,   1.000000E+05,   9.000000E+04,   5.396484E+04,   0.000000E+00
  1.000000E+05,   1.500000E+05,   1.250000E+05,   6.974196E+04,   0.000000E+00
  1.500000E+05,   2.000000E+05,   1.750000E+05,   2.554825E+04,   0.000000E+00
  2.000000E+05,   3.000000E+05,   2.500000E+05,   1.239047E+04,   0.000000E+00
  3.000000E+05,   4.000000E+05,   3.500000E+05,   1.986245E+03,   0.000000E+00
  4.000000E+05,   5.000000E+05,   4.500000E+05,   1.296821E+01,   0.000000E+00
  5.000000E+05,   8.000000E+05,   6.500000E+05,   1.690985E+00,   0.000000E+00
  8.000000E+05,   1.000000E+06,   0.000000E+00,   0.000000E+00,   0.000000E+00
'End of Block'
'*',    13,     3,     4,     0,     5,     5,    46,    -1
'OMNIDIRECTIONAL FLUENCE ANALYSIS'
'MULASSIS ml-v01-19'
'geant4-09-02-ref-00 (19-December-2008)'
'FLU_BDY', 1, 2, ' '
'FLU_PAR, -1, neutron '
'FLU_AMN', 1, 0., 'deg'
'FLU_AMX', 1, 90., 'deg'
'Elo','keV', 1, ' Lower edge of energy    bin '
'Eup','keV', 1, ' Upper edge of energy    bin '
'Emean','keV', 1, ' Mean energy of bin '
'Value','particles/cm2/bin',1,             'Fluence/flux'
'Error','particles/cm2/bin',1,'Error in   fluence/flux'
  0.000000E+00,   4.000000E+01,   2.000000E+01,   3.643312E+05,   0.000000E+00
  4.000000E+01,   1.000000E+02,   7.000000E+01,   5.464968E+05,   0.000000E+00
  1.000000E+02,   2.000000E+02,   1.500000E+02,   9.108280E+05,   0.000000E+00
  2.000000E+02,   3.000000E+02,   2.500000E+02,   9.108280E+05,   0.000000E+00
  3.000000E+02,   4.000000E+02,   3.500000E+02,   9.108280E+05,   0.000000E+00
  4.000000E+02,   5.000000E+02,   4.500000E+02,   9.108280E+05,   0.000000E+00
  5.000000E+02,   6.000000E+02,   5.500000E+02,   9.097996E+05,   0.000000E+00
  6.000000E+02,   7.000000E+02,   6.500000E+02,   9.038748E+05,   0.000000E+00
  7.000000E+02,   8.000000E+02,   7.500000E+02,   9.038748E+05,   0.000000E+00
  8.000000E+02,   1.000000E+03,   9.000000E+02,   1.795050E+06,   0.000000E+00
  1.000000E+03,   1.250000E+03,   1.125000E+03,   2.221940E+06,   0.000000E+00
  1.250000E+03,   1.500000E+03,   1.375000E+03,   2.190882E+06,   0.000000E+00
  1.500000E+03,   1.750000E+03,   1.625000E+03,   2.158672E+06,   0.000000E+00
  1.750000E+03,   2.000000E+03,   1.875000E+03,   2.110720E+06,   0.000000E+00
  2.000000E+03,   2.250000E+03,   2.125000E+03,   2.071581E+06,   0.000000E+00
  2.250000E+03,   2.500000E+03,   2.375000E+03,   2.025945E+06,   0.000000E+00
  2.500000E+03,   2.750000E+03,   2.625000E+03,   1.969823E+06,   0.000000E+00
  2.750000E+03,   3.000000E+03,   2.875000E+03,   1.933644E+06,   0.000000E+00
  3.000000E+03,   3.250000E+03,   3.125000E+03,   1.858425E+06,   0.000000E+00
  3.250000E+03,   3.500000E+03,   3.375000E+03,   1.812444E+06,   0.000000E+00
  3.500000E+03,   3.750000E+03,   3.625000E+03,   1.768912E+06,   0.000000E+00
  3.750000E+03,   4.000000E+03,   3.875000E+03,   1.702048E+06,   0.000000E+00
  4.000000E+03,   4.250000E+03,   4.125000E+03,   1.666315E+06,   0.000000E+00
  4.250000E+03,   4.500000E+03,   4.375000E+03,   1.592081E+06,   0.000000E+00
  4.500000E+03,   4.750000E+03,   4.625000E+03,   1.562481E+06,   0.000000E+00
  4.750000E+03,   5.000000E+03,   4.875000E+03,   1.482264E+06,   0.000000E+00
  5.000000E+03,   5.500000E+03,   5.250000E+03,   2.849515E+06,   0.000000E+00
  5.500000E+03,   6.000000E+03,   5.750000E+03,   2.685386E+06,   0.000000E+00
  6.000000E+03,   6.500000E+03,   6.250000E+03,   2.509008E+06,   0.000000E+00
  6.500000E+03,   7.000000E+03,   6.750000E+03,   2.321237E+06,   0.000000E+00
  7.000000E+03,   1.000000E+04,   8.500000E+03,   1.134749E+07,   0.000000E+00
  1.000000E+04,   2.000000E+04,   1.500000E+04,   2.038165E+07,   0.000000E+00
  2.000000E+04,   3.000000E+04,   2.500000E+04,   1.059964E+07,   0.000000E+00
  3.000000E+04,   4.000000E+04,   3.500000E+04,   7.067968E+06,   0.000000E+00
  4.000000E+04,   5.000000E+04,   4.500000E+04,   5.115686E+06,   0.000000E+00
  5.000000E+04,   6.000000E+04,   5.500000E+04,   3.881652E+06,   0.000000E+00
  6.000000E+04,   7.000000E+04,   6.500000E+04,   2.977677E+06,   0.000000E+00
  7.000000E+04,   8.000000E+04,   7.500000E+04,   2.331028E+06,   0.000000E+00
  8.000000E+04,   1.000000E+05,   9.000000E+04,   3.401581E+06,   0.000000E+00
  1.000000E+05,   1.500000E+05,   1.250000E+05,   4.669872E+06,   0.000000E+00
  1.500000E+05,   2.000000E+05,   1.750000E+05,   2.137646E+06,   0.000000E+00
  2.000000E+05,   3.000000E+05,   2.500000E+05,   1.213741E+06,   0.000000E+00
  3.000000E+05,   4.000000E+05,   3.500000E+05,   1.268942E+05,   0.000000E+00
  4.000000E+05,   5.000000E+05,   4.500000E+05,   6.188780E+02,   0.000000E+00
  5.000000E+05,   8.000000E+05,   6.500000E+05,   5.103858E+01,   0.000000E+00
  8.000000E+05,   1.000000E+06,   0.000000E+00,   0.000000E+00,   0.000000E+00
'End of File'
