'*',    13,     3,     4,     0,     5,     5,    46,     2
'OMNIDIRECTIONAL FLUENCE ANALYSIS'
'MULASSIS ml-v01-19'
'geant4-09-02-ref-00 (19-December-2008)'
'FLU_BDY', 1, 2, ' '
'FLU_PAR, -1, proton  '
'FLU_AMN', 1, 0., 'deg'
'FLU_AMX', 1, 90., 'deg'
'Elo','keV', 1, ' Lower edge of energy    bin '
'Eup','keV', 1, ' Upper edge of energy    bin '
'Emean','keV', 1, ' Mean energy of bin '
'Value','particles/cm2/bin',1,             'Fluence/flux'
'Error','particles/cm2/bin',1,'Error in   fluence/flux'
  0.000000E+00,   4.000000E+01,   2.000000E+01,   2.250504E+04,   0.000000E+00
  4.000000E+01,   1.000000E+02,   7.000000E+01,   3.375757E+04,   0.000000E+00
  1.000000E+02,   2.000000E+02,   1.500000E+02,   5.626261E+04,   0.000000E+00
  2.000000E+02,   3.000000E+02,   2.500000E+02,   5.626261E+04,   0.000000E+00
  3.000000E+02,   4.000000E+02,   3.500000E+02,   5.626261E+04,   0.000000E+00
  4.000000E+02,   5.000000E+02,   4.500000E+02,   5.626261E+04,   0.000000E+00
  5.000000E+02,   6.000000E+02,   5.500000E+02,   5.687166E+04,   0.000000E+00
  6.000000E+02,   7.000000E+02,   6.500000E+02,   6.038049E+04,   0.000000E+00
  7.000000E+02,   8.000000E+02,   7.500000E+02,   6.038049E+04,   0.000000E+00
  8.000000E+02,   1.000000E+03,   9.000000E+02,   1.287312E+05,   0.000000E+00
  1.000000E+03,   1.250000E+03,   1.125000E+03,   1.752528E+05,   0.000000E+00
  1.250000E+03,   1.500000E+03,   1.375000E+03,   1.962685E+05,   0.000000E+00
  1.500000E+03,   1.750000E+03,   1.625000E+03,   2.161879E+05,   0.000000E+00
  1.750000E+03,   2.000000E+03,   1.875000E+03,   2.436741E+05,   0.000000E+00
  2.000000E+03,   2.250000E+03,   2.125000E+03,   2.590003E+05,   0.000000E+00
  2.250000E+03,   2.500000E+03,   2.375000E+03,   2.795001E+05,   0.000000E+00
  2.500000E+03,   2.750000E+03,   2.625000E+03,   3.078666E+05,   0.000000E+00
  2.750000E+03,   3.000000E+03,   2.875000E+03,   3.203009E+05,   0.000000E+00
  3.000000E+03,   3.250000E+03,   3.125000E+03,   3.507558E+05,   0.000000E+00
  3.250000E+03,   3.500000E+03,   3.375000E+03,   3.750187E+05,   0.000000E+00
  3.500000E+03,   3.750000E+03,   3.625000E+03,   4.014711E+05,   0.000000E+00
  3.750000E+03,   4.000000E+03,   3.875000E+03,   4.177454E+05,   0.000000E+00
  4.000000E+03,   4.250000E+03,   4.125000E+03,   4.464812E+05,   0.000000E+00
  4.250000E+03,   4.500000E+03,   4.375000E+03,   4.809711E+05,   0.000000E+00
  4.500000E+03,   4.750000E+03,   4.625000E+03,   4.987897E+05,   0.000000E+00
  4.750000E+03,   5.000000E+03,   4.875000E+03,   5.311624E+05,   0.000000E+00
  5.000000E+03,   5.500000E+03,   5.250000E+03,   1.157168E+06,   0.000000E+00
  5.500000E+03,   6.000000E+03,   5.750000E+03,   1.270458E+06,   0.000000E+00
  6.000000E+03,   6.500000E+03,   6.250000E+03,   1.412635E+06,   0.000000E+00
  6.500000E+03,   7.000000E+03,   6.750000E+03,   1.591252E+06,   0.000000E+00
  7.000000E+03,   1.000000E+04,   8.500000E+03,   1.269810E+07,   0.000000E+00
  1.000000E+04,   2.000000E+04,   1.500000E+04,   5.885803E+07,   0.000000E+00
  2.000000E+04,   3.000000E+04,   2.500000E+04,   7.392479E+07,   0.000000E+00
  3.000000E+04,   4.000000E+04,   3.500000E+04,   8.861676E+07,   0.000000E+00
  4.000000E+04,   5.000000E+04,   4.500000E+04,   1.042931E+08,   0.000000E+00
  5.000000E+04,   6.000000E+04,   5.500000E+04,   1.208896E+08,   0.000000E+00
  6.000000E+04,   7.000000E+04,   6.500000E+04,   1.096846E+08,   0.000000E+00
  7.000000E+04,   8.000000E+04,   7.500000E+04,   1.164174E+08,   0.000000E+00
  8.000000E+04,   1.000000E+05,   9.000000E+04,   2.079893E+08,   0.000000E+00
  1.000000E+05,   1.500000E+05,   1.250000E+05,   3.151324E+08,   0.000000E+00
  1.500000E+05,   2.000000E+05,   1.750000E+05,   1.582359E+08,   0.000000E+00
  2.000000E+05,   3.000000E+05,   2.500000E+05,   1.287144E+08,   0.000000E+00
  3.000000E+05,   4.000000E+05,   3.500000E+05,   1.170542E+07,   0.000000E+00
  4.000000E+05,   5.000000E+05,   4.500000E+05,   8.678816E+04,   0.000000E+00
  5.000000E+05,   8.000000E+05,   6.500000E+05,   3.856505E+04,   0.000000E+00
  8.000000E+05,   1.000000E+06,   0.000000E+00,   0.000000E+00,   0.000000E+00
'End of Block'
'*',    13,     3,     4,     0,     5,     5,    46,     1
'OMNIDIRECTIONAL FLUENCE ANALYSIS'
'MULASSIS ml-v01-19'
'geant4-09-02-ref-00 (19-December-2008)'
'FLU_BDY', 1, 2, ' '
'FLU_PAR, -1, e-      '
'FLU_AMN', 1, 0., 'deg'
'FLU_AMX', 1, 90., 'deg'
'Elo','keV', 1, ' Lower edge of energy    bin '
'Eup','keV', 1, ' Upper edge of energy    bin '
'Emean','keV', 1, ' Mean energy of bin '
'Value','particles/cm2/bin',1,             'Fluence/flux'
'Error','particles/cm2/bin',1,'Error in   fluence/flux'
  0.000000E+00,   4.000000E+01,   2.000000E+01,   5.131654E+08,   0.000000E+00
  4.000000E+01,   1.000000E+02,   7.000000E+01,   5.614626E+08,   0.000000E+00
  1.000000E+02,   2.000000E+02,   1.500000E+02,   7.014687E+08,   0.000000E+00
  2.000000E+02,   3.000000E+02,   2.500000E+02,   7.365863E+08,   0.000000E+00
  3.000000E+02,   4.000000E+02,   3.500000E+02,   8.502194E+08,   0.000000E+00
  4.000000E+02,   5.000000E+02,   4.500000E+02,   9.638659E+08,   0.000000E+00
  5.000000E+02,   6.000000E+02,   5.500000E+02,   1.047772E+09,   0.000000E+00
  6.000000E+02,   7.000000E+02,   6.500000E+02,   1.088936E+09,   0.000000E+00
  7.000000E+02,   8.000000E+02,   7.500000E+02,   1.105762E+09,   0.000000E+00
  8.000000E+02,   1.000000E+03,   9.000000E+02,   2.108859E+09,   0.000000E+00
  1.000000E+03,   1.250000E+03,   1.125000E+03,   2.307012E+09,   0.000000E+00
  1.250000E+03,   1.500000E+03,   1.375000E+03,   1.840956E+09,   0.000000E+00
  1.500000E+03,   1.750000E+03,   1.625000E+03,   1.411794E+09,   0.000000E+00
  1.750000E+03,   2.000000E+03,   1.875000E+03,   1.002210E+09,   0.000000E+00
  2.000000E+03,   2.250000E+03,   2.125000E+03,   6.285343E+08,   0.000000E+00
  2.250000E+03,   2.500000E+03,   2.375000E+03,   3.683911E+08,   0.000000E+00
  2.500000E+03,   2.750000E+03,   2.625000E+03,   2.136548E+08,   0.000000E+00
  2.750000E+03,   3.000000E+03,   2.875000E+03,   1.274256E+08,   0.000000E+00
  3.000000E+03,   3.250000E+03,   3.125000E+03,   7.445378E+07,   0.000000E+00
  3.250000E+03,   3.500000E+03,   3.375000E+03,   4.269422E+07,   0.000000E+00
  3.500000E+03,   3.750000E+03,   3.625000E+03,   2.340268E+07,   0.000000E+00
  3.750000E+03,   4.000000E+03,   3.875000E+03,   1.272381E+07,   0.000000E+00
  4.000000E+03,   4.250000E+03,   4.125000E+03,   6.826672E+06,   0.000000E+00
  4.250000E+03,   4.500000E+03,   4.375000E+03,   3.512801E+06,   0.000000E+00
  4.500000E+03,   4.750000E+03,   4.625000E+03,   1.656146E+06,   0.000000E+00
  4.750000E+03,   5.000000E+03,   4.875000E+03,   7.151425E+05,   0.000000E+00
  5.000000E+03,   5.500000E+03,   5.250000E+03,   3.487553E+05,   0.000000E+00
  5.500000E+03,   6.000000E+03,   5.750000E+03,   5.672491E+03,   0.000000E+00
  6.000000E+03,   6.500000E+03,   6.250000E+03,   1.784681E+03,   0.000000E+00
  6.500000E+03,   7.000000E+03,   6.750000E+03,   1.784681E+03,   0.000000E+00
  7.000000E+03,   1.000000E+04,   8.500000E+03,   1.070809E+04,   0.000000E+00
  1.000000E+04,   2.000000E+04,   1.500000E+04,   3.569363E+04,   0.000000E+00
  2.000000E+04,   3.000000E+04,   2.500000E+04,   2.913352E+04,   0.000000E+00
  3.000000E+04,   4.000000E+04,   3.500000E+04,   2.000762E+04,   0.000000E+00
  4.000000E+04,   5.000000E+04,   4.500000E+04,   1.513192E+04,   0.000000E+00
  5.000000E+04,   6.000000E+04,   5.500000E+04,   1.199374E+04,   0.000000E+00
  6.000000E+04,   7.000000E+04,   6.500000E+04,   9.493136E+03,   0.000000E+00
  7.000000E+04,   8.000000E+04,   7.500000E+04,   7.159549E+03,   0.000000E+00
  8.000000E+04,   1.000000E+05,   9.000000E+04,   1.020086E+04,   0.000000E+00
  1.000000E+05,   1.500000E+05,   1.250000E+05,   1.246029E+04,   0.000000E+00
  1.500000E+05,   2.000000E+05,   1.750000E+05,   4.017245E+03,   0.000000E+00
  2.000000E+05,   3.000000E+05,   2.500000E+05,   1.461462E+03,   0.000000E+00
  3.000000E+05,   4.000000E+05,   0.000000E+00,  -2.329458E+01,   0.000000E+00
  4.000000E+05,   5.000000E+05,   4.500000E+05,   2.098225E+00,   0.000000E+00
  5.000000E+05,   8.000000E+05,   6.500000E+05,   2.887711E-01,   0.000000E+00
  8.000000E+05,   1.000000E+06,   0.000000E+00,   0.000000E+00,   0.000000E+00
'End of Block'
'*',    13,     3,     4,     0,     5,     5,    46,    -1
'OMNIDIRECTIONAL FLUENCE ANALYSIS'
'MULASSIS ml-v01-19'
'geant4-09-02-ref-00 (19-December-2008)'
'FLU_BDY', 1, 2, ' '
'FLU_PAR, -1, neutron '
'FLU_AMN', 1, 0., 'deg'
'FLU_AMX', 1, 90., 'deg'
'Elo','keV', 1, ' Lower edge of energy    bin '
'Eup','keV', 1, ' Upper edge of energy    bin '
'Emean','keV', 1, ' Mean energy of bin '
'Value','particles/cm2/bin',1,             'Fluence/flux'
'Error','particles/cm2/bin',1,'Error in   fluence/flux'
  0.000000E+00,   4.000000E+01,   2.000000E+01,   6.202006E+04,   0.000000E+00
  4.000000E+01,   1.000000E+02,   7.000000E+01,   9.303010E+04,   0.000000E+00
  1.000000E+02,   2.000000E+02,   1.500000E+02,   1.550502E+05,   0.000000E+00
  2.000000E+02,   3.000000E+02,   2.500000E+02,   1.550502E+05,   0.000000E+00
  3.000000E+02,   4.000000E+02,   3.500000E+02,   1.550502E+05,   0.000000E+00
  4.000000E+02,   5.000000E+02,   4.500000E+02,   1.550502E+05,   0.000000E+00
  5.000000E+02,   6.000000E+02,   5.500000E+02,   1.549447E+05,   0.000000E+00
  6.000000E+02,   7.000000E+02,   6.500000E+02,   1.543370E+05,   0.000000E+00
  7.000000E+02,   8.000000E+02,   7.500000E+02,   1.543370E+05,   0.000000E+00
  8.000000E+02,   1.000000E+03,   9.000000E+02,   3.072942E+05,   0.000000E+00
  1.000000E+03,   1.250000E+03,   1.125000E+03,   3.816689E+05,   0.000000E+00
  1.250000E+03,   1.500000E+03,   1.375000E+03,   3.780967E+05,   0.000000E+00
  1.500000E+03,   1.750000E+03,   1.625000E+03,   3.739617E+05,   0.000000E+00
  1.750000E+03,   2.000000E+03,   1.875000E+03,   3.679381E+05,   0.000000E+00
  2.000000E+03,   2.250000E+03,   2.125000E+03,   3.625418E+05,   0.000000E+00
  2.250000E+03,   2.500000E+03,   2.375000E+03,   3.561671E+05,   0.000000E+00
  2.500000E+03,   2.750000E+03,   2.625000E+03,   3.484671E+05,   0.000000E+00
  2.750000E+03,   3.000000E+03,   2.875000E+03,   3.430778E+05,   0.000000E+00
  3.000000E+03,   3.250000E+03,   3.125000E+03,   3.307484E+05,   0.000000E+00
  3.250000E+03,   3.500000E+03,   3.375000E+03,   3.234409E+05,   0.000000E+00
  3.500000E+03,   3.750000E+03,   3.625000E+03,   3.164649E+05,   0.000000E+00
  3.750000E+03,   4.000000E+03,   3.875000E+03,   3.043780E+05,   0.000000E+00
  4.000000E+03,   4.250000E+03,   4.125000E+03,   2.987326E+05,   0.000000E+00
  4.250000E+03,   4.500000E+03,   4.375000E+03,   2.854503E+05,   0.000000E+00
  4.500000E+03,   4.750000E+03,   4.625000E+03,   2.804636E+05,   0.000000E+00
  4.750000E+03,   5.000000E+03,   4.875000E+03,   2.659858E+05,   0.000000E+00
  5.000000E+03,   5.500000E+03,   5.250000E+03,   5.121816E+05,   0.000000E+00
  5.500000E+03,   6.000000E+03,   5.750000E+03,   4.833718E+05,   0.000000E+00
  6.000000E+03,   6.500000E+03,   6.250000E+03,   4.518903E+05,   0.000000E+00
  6.500000E+03,   7.000000E+03,   6.750000E+03,   4.155863E+05,   0.000000E+00
  7.000000E+03,   1.000000E+04,   8.500000E+03,   2.019794E+06,   0.000000E+00
  1.000000E+04,   2.000000E+04,   1.500000E+04,   3.609944E+06,   0.000000E+00
  2.000000E+04,   3.000000E+04,   2.500000E+04,   1.919174E+06,   0.000000E+00
  3.000000E+04,   4.000000E+04,   3.500000E+04,   1.297148E+06,   0.000000E+00
  4.000000E+04,   5.000000E+04,   4.500000E+04,   9.385387E+05,   0.000000E+00
  5.000000E+04,   6.000000E+04,   5.500000E+04,   7.112669E+05,   0.000000E+00
  6.000000E+04,   7.000000E+04,   6.500000E+04,   5.399034E+05,   0.000000E+00
  7.000000E+04,   8.000000E+04,   7.500000E+04,   4.182384E+05,   0.000000E+00
  8.000000E+04,   1.000000E+05,   9.000000E+04,   5.965591E+05,   0.000000E+00
  1.000000E+05,   1.500000E+05,   1.250000E+05,   7.654864E+05,   0.000000E+00
  1.500000E+05,   2.000000E+05,   1.750000E+05,   3.180389E+05,   0.000000E+00
  2.000000E+05,   3.000000E+05,   2.500000E+05,   1.447609E+05,   0.000000E+00
  3.000000E+05,   4.000000E+05,   0.000000E+00,  -2.773442E+03,   0.000000E+00
  4.000000E+05,   5.000000E+05,   4.500000E+05,   1.003787E+02,   0.000000E+00
  5.000000E+05,   8.000000E+05,   6.500000E+05,   8.715907E+00,   0.000000E+00
  8.000000E+05,   1.000000E+06,   0.000000E+00,   0.000000E+00,   0.000000E+00
'End of File'
