'*',    13,     3,     4,     0,     5,     5,    46,     2
'OMNIDIRECTIONAL FLUENCE ANALYSIS'
'MULASSIS ml-v01-19'
'geant4-09-02-ref-00 (19-December-2008)'
'FLU_BDY', 1, 2, ' '
'FLU_PAR, -1, proton  '
'FLU_AMN', 1, 0., 'deg'
'FLU_AMX', 1, 90., 'deg'
'Elo','keV', 1, ' Lower edge of energy    bin '
'Eup','keV', 1, ' Upper edge of energy    bin '
'Emean','keV', 1, ' Mean energy of bin '
'Value','particles/cm2/bin',1,             'Fluence/flux'
'Error','particles/cm2/bin',1,'Error in   fluence/flux'
  0.000000E+00,   4.000000E+01,   2.000000E+01,   3.572318E+05,   0.000000E+00
  4.000000E+01,   1.000000E+02,   7.000000E+01,   5.358478E+05,   0.000000E+00
  1.000000E+02,   2.000000E+02,   1.500000E+02,   8.930796E+05,   0.000000E+00
  2.000000E+02,   3.000000E+02,   2.500000E+02,   8.930796E+05,   0.000000E+00
  3.000000E+02,   4.000000E+02,   3.500000E+02,   8.930796E+05,   0.000000E+00
  4.000000E+02,   5.000000E+02,   4.500000E+02,   8.930796E+05,   0.000000E+00
  5.000000E+02,   6.000000E+02,   5.500000E+02,   9.044715E+05,   0.000000E+00
  6.000000E+02,   7.000000E+02,   6.500000E+02,   9.701019E+05,   0.000000E+00
  7.000000E+02,   8.000000E+02,   7.500000E+02,   9.701019E+05,   0.000000E+00
  8.000000E+02,   1.000000E+03,   9.000000E+02,   2.085012E+06,   0.000000E+00
  1.000000E+03,   1.250000E+03,   1.125000E+03,   2.863114E+06,   0.000000E+00
  1.250000E+03,   1.500000E+03,   1.375000E+03,   3.234817E+06,   0.000000E+00
  1.500000E+03,   1.750000E+03,   1.625000E+03,   3.563107E+06,   0.000000E+00
  1.750000E+03,   2.000000E+03,   1.875000E+03,   4.037478E+06,   0.000000E+00
  2.000000E+03,   2.250000E+03,   2.125000E+03,   4.288516E+06,   0.000000E+00
  2.250000E+03,   2.500000E+03,   2.375000E+03,   4.641080E+06,   0.000000E+00
  2.500000E+03,   2.750000E+03,   2.625000E+03,   5.132966E+06,   0.000000E+00
  2.750000E+03,   3.000000E+03,   2.875000E+03,   5.342407E+06,   0.000000E+00
  3.000000E+03,   3.250000E+03,   3.125000E+03,   5.834832E+06,   0.000000E+00
  3.250000E+03,   3.500000E+03,   3.375000E+03,   6.245389E+06,   0.000000E+00
  3.500000E+03,   3.750000E+03,   3.625000E+03,   6.697641E+06,   0.000000E+00
  3.750000E+03,   4.000000E+03,   3.875000E+03,   6.948711E+06,   0.000000E+00
  4.000000E+03,   4.250000E+03,   4.125000E+03,   7.447850E+06,   0.000000E+00
  4.250000E+03,   4.500000E+03,   4.375000E+03,   8.033813E+06,   0.000000E+00
  4.500000E+03,   4.750000E+03,   4.625000E+03,   8.328072E+06,   0.000000E+00
  4.750000E+03,   5.000000E+03,   4.875000E+03,   8.872767E+06,   0.000000E+00
  5.000000E+03,   5.500000E+03,   5.250000E+03,   1.940173E+07,   0.000000E+00
  5.500000E+03,   6.000000E+03,   5.750000E+03,   2.137279E+07,   0.000000E+00
  6.000000E+03,   6.500000E+03,   6.250000E+03,   2.379708E+07,   0.000000E+00
  6.500000E+03,   7.000000E+03,   6.750000E+03,   2.694807E+07,   0.000000E+00
  7.000000E+03,   1.000000E+04,   8.500000E+03,   2.163389E+08,   0.000000E+00
  1.000000E+04,   2.000000E+04,   1.500000E+04,   9.587940E+08,   0.000000E+00
  2.000000E+04,   3.000000E+04,   2.500000E+04,   1.128417E+09,   0.000000E+00
  3.000000E+04,   4.000000E+04,   3.500000E+04,   1.312227E+09,   0.000000E+00
  4.000000E+04,   5.000000E+04,   4.500000E+04,   1.434047E+09,   0.000000E+00
  5.000000E+04,   6.000000E+04,   5.500000E+04,   1.613321E+09,   0.000000E+00
  6.000000E+04,   7.000000E+04,   6.500000E+04,   1.462001E+09,   0.000000E+00
  7.000000E+04,   8.000000E+04,   7.500000E+04,   1.566153E+09,   0.000000E+00
  8.000000E+04,   1.000000E+05,   9.000000E+04,   2.804289E+09,   0.000000E+00
  1.000000E+05,   1.500000E+05,   1.250000E+05,   4.442037E+09,   0.000000E+00
  1.500000E+05,   2.000000E+05,   1.750000E+05,   2.607635E+09,   0.000000E+00
  2.000000E+05,   3.000000E+05,   2.500000E+05,   2.503330E+09,   0.000000E+00
  3.000000E+05,   4.000000E+05,   3.500000E+05,   6.880841E+08,   0.000000E+00
  4.000000E+05,   5.000000E+05,   4.500000E+05,   6.169428E+05,   0.000000E+00
  5.000000E+05,   8.000000E+05,   6.500000E+05,   2.359204E+05,   0.000000E+00
  8.000000E+05,   1.000000E+06,   0.000000E+00,   0.000000E+00,   0.000000E+00
'End of Block'
'*',    13,     3,     4,     0,     5,     5,    46,     1
'OMNIDIRECTIONAL FLUENCE ANALYSIS'
'MULASSIS ml-v01-19'
'geant4-09-02-ref-00 (19-December-2008)'
'FLU_BDY', 1, 2, ' '
'FLU_PAR, -1, e-      '
'FLU_AMN', 1, 0., 'deg'
'FLU_AMX', 1, 90., 'deg'
'Elo','keV', 1, ' Lower edge of energy    bin '
'Eup','keV', 1, ' Upper edge of energy    bin '
'Emean','keV', 1, ' Mean energy of bin '
'Value','particles/cm2/bin',1,             'Fluence/flux'
'Error','particles/cm2/bin',1,'Error in   fluence/flux'
  0.000000E+00,   4.000000E+01,   2.000000E+01,   3.583352E+09,   0.000000E+00
  4.000000E+01,   1.000000E+02,   7.000000E+01,   3.463604E+09,   0.000000E+00
  1.000000E+02,   2.000000E+02,   1.500000E+02,   4.173076E+09,   0.000000E+00
  2.000000E+02,   3.000000E+02,   2.500000E+02,   4.360451E+09,   0.000000E+00
  3.000000E+02,   4.000000E+02,   3.500000E+02,   5.029741E+09,   0.000000E+00
  4.000000E+02,   5.000000E+02,   4.500000E+02,   5.672318E+09,   0.000000E+00
  5.000000E+02,   6.000000E+02,   5.500000E+02,   6.102437E+09,   0.000000E+00
  6.000000E+02,   7.000000E+02,   6.500000E+02,   6.248545E+09,   0.000000E+00
  7.000000E+02,   8.000000E+02,   7.500000E+02,   6.243342E+09,   0.000000E+00
  8.000000E+02,   1.000000E+03,   9.000000E+02,   1.170438E+10,   0.000000E+00
  1.000000E+03,   1.250000E+03,   1.125000E+03,   1.256368E+10,   0.000000E+00
  1.250000E+03,   1.500000E+03,   1.375000E+03,   9.829893E+09,   0.000000E+00
  1.500000E+03,   1.750000E+03,   1.625000E+03,   7.420797E+09,   0.000000E+00
  1.750000E+03,   2.000000E+03,   1.875000E+03,   5.165948E+09,   0.000000E+00
  2.000000E+03,   2.250000E+03,   2.125000E+03,   3.122780E+09,   0.000000E+00
  2.250000E+03,   2.500000E+03,   2.375000E+03,   1.762171E+09,   0.000000E+00
  2.500000E+03,   2.750000E+03,   2.625000E+03,   9.787683E+08,   0.000000E+00
  2.750000E+03,   3.000000E+03,   2.875000E+03,   5.622959E+08,   0.000000E+00
  3.000000E+03,   3.250000E+03,   3.125000E+03,   3.157047E+08,   0.000000E+00
  3.250000E+03,   3.500000E+03,   3.375000E+03,   1.738447E+08,   0.000000E+00
  3.500000E+03,   3.750000E+03,   3.625000E+03,   9.194300E+07,   0.000000E+00
  3.750000E+03,   4.000000E+03,   3.875000E+03,   4.798002E+07,   0.000000E+00
  4.000000E+03,   4.250000E+03,   4.125000E+03,   2.415959E+07,   0.000000E+00
  4.250000E+03,   4.500000E+03,   4.375000E+03,   1.173967E+07,   0.000000E+00
  4.500000E+03,   4.750000E+03,   4.625000E+03,   5.438136E+06,   0.000000E+00
  4.750000E+03,   5.000000E+03,   4.875000E+03,   2.336445E+06,   0.000000E+00
  5.000000E+03,   5.500000E+03,   5.250000E+03,   1.104130E+06,   0.000000E+00
  5.500000E+03,   6.000000E+03,   5.750000E+03,   3.954725E+04,   0.000000E+00
  6.000000E+03,   6.500000E+03,   6.250000E+03,   2.811977E+04,   0.000000E+00
  6.500000E+03,   7.000000E+03,   6.750000E+03,   2.811977E+04,   0.000000E+00
  7.000000E+03,   1.000000E+04,   8.500000E+03,   1.687186E+05,   0.000000E+00
  1.000000E+04,   2.000000E+04,   1.500000E+04,   5.623954E+05,   0.000000E+00
  2.000000E+04,   3.000000E+04,   2.500000E+04,   4.426074E+05,   0.000000E+00
  3.000000E+04,   4.000000E+04,   3.500000E+04,   2.886919E+05,   0.000000E+00
  4.000000E+04,   5.000000E+04,   4.500000E+04,   2.127910E+05,   0.000000E+00
  5.000000E+04,   6.000000E+04,   5.500000E+04,   1.674450E+05,   0.000000E+00
  6.000000E+04,   7.000000E+04,   6.500000E+04,   1.339653E+05,   0.000000E+00
  7.000000E+04,   8.000000E+04,   7.500000E+04,   1.030191E+05,   0.000000E+00
  8.000000E+04,   1.000000E+05,   9.000000E+04,   1.506871E+05,   0.000000E+00
  1.000000E+05,   1.500000E+05,   1.250000E+05,   2.006613E+05,   0.000000E+00
  1.500000E+05,   2.000000E+05,   1.750000E+05,   7.674853E+04,   0.000000E+00
  2.000000E+05,   3.000000E+05,   2.500000E+05,   3.989742E+04,   0.000000E+00
  3.000000E+05,   4.000000E+05,   3.500000E+05,   7.634248E+03,   0.000000E+00
  4.000000E+05,   5.000000E+05,   4.500000E+05,   1.354197E+01,   0.000000E+00
  5.000000E+05,   8.000000E+05,   6.500000E+05,   1.766547E+00,   0.000000E+00
  8.000000E+05,   1.000000E+06,   0.000000E+00,   0.000000E+00,   0.000000E+00
'End of Block'
'*',    13,     3,     4,     0,     5,     5,    46,    -1
'OMNIDIRECTIONAL FLUENCE ANALYSIS'
'MULASSIS ml-v01-19'
'geant4-09-02-ref-00 (19-December-2008)'
'FLU_BDY', 1, 2, ' '
'FLU_PAR, -1, neutron '
'FLU_AMN', 1, 0., 'deg'
'FLU_AMX', 1, 90., 'deg'
'Elo','keV', 1, ' Lower edge of energy    bin '
'Eup','keV', 1, ' Upper edge of energy    bin '
'Emean','keV', 1, ' Mean energy of bin '
'Value','particles/cm2/bin',1,             'Fluence/flux'
'Error','particles/cm2/bin',1,'Error in   fluence/flux'
  0.000000E+00,   4.000000E+01,   2.000000E+01,   9.197425E+05,   0.000000E+00
  4.000000E+01,   1.000000E+02,   7.000000E+01,   1.379614E+06,   0.000000E+00
  1.000000E+02,   2.000000E+02,   1.500000E+02,   2.299356E+06,   0.000000E+00
  2.000000E+02,   3.000000E+02,   2.500000E+02,   2.299356E+06,   0.000000E+00
  3.000000E+02,   4.000000E+02,   3.500000E+02,   2.299356E+06,   0.000000E+00
  4.000000E+02,   5.000000E+02,   4.500000E+02,   2.299356E+06,   0.000000E+00
  5.000000E+02,   6.000000E+02,   5.500000E+02,   2.297383E+06,   0.000000E+00
  6.000000E+02,   7.000000E+02,   6.500000E+02,   2.286017E+06,   0.000000E+00
  7.000000E+02,   8.000000E+02,   7.500000E+02,   2.286017E+06,   0.000000E+00
  8.000000E+02,   1.000000E+03,   9.000000E+02,   4.546966E+06,   0.000000E+00
  1.000000E+03,   1.250000E+03,   1.125000E+03,   5.639868E+06,   0.000000E+00
  1.250000E+03,   1.500000E+03,   1.375000E+03,   5.576761E+06,   0.000000E+00
  1.500000E+03,   1.750000E+03,   1.625000E+03,   5.509116E+06,   0.000000E+00
  1.750000E+03,   2.000000E+03,   1.875000E+03,   5.409156E+06,   0.000000E+00
  2.000000E+03,   2.250000E+03,   2.125000E+03,   5.323430E+06,   0.000000E+00
  2.250000E+03,   2.500000E+03,   2.375000E+03,   5.221203E+06,   0.000000E+00
  2.500000E+03,   2.750000E+03,   2.625000E+03,   5.096152E+06,   0.000000E+00
  2.750000E+03,   3.000000E+03,   2.875000E+03,   5.011885E+06,   0.000000E+00
  3.000000E+03,   3.250000E+03,   3.125000E+03,   4.837126E+06,   0.000000E+00
  3.250000E+03,   3.500000E+03,   3.375000E+03,   4.731343E+06,   0.000000E+00
  3.500000E+03,   3.750000E+03,   3.625000E+03,   4.630849E+06,   0.000000E+00
  3.750000E+03,   4.000000E+03,   3.875000E+03,   4.465992E+06,   0.000000E+00
  4.000000E+03,   4.250000E+03,   4.125000E+03,   4.382904E+06,   0.000000E+00
  4.250000E+03,   4.500000E+03,   4.375000E+03,   4.199740E+06,   0.000000E+00
  4.500000E+03,   4.750000E+03,   4.625000E+03,   4.128238E+06,   0.000000E+00
  4.750000E+03,   5.000000E+03,   4.875000E+03,   3.926937E+06,   0.000000E+00
  5.000000E+03,   5.500000E+03,   5.250000E+03,   7.569792E+06,   0.000000E+00
  5.500000E+03,   6.000000E+03,   5.750000E+03,   7.158704E+06,   0.000000E+00
  6.000000E+03,   6.500000E+03,   6.250000E+03,   6.719719E+06,   0.000000E+00
  6.500000E+03,   7.000000E+03,   6.750000E+03,   6.233146E+06,   0.000000E+00
  7.000000E+03,   1.000000E+04,   8.500000E+03,   3.073637E+07,   0.000000E+00
  1.000000E+04,   2.000000E+04,   1.500000E+04,   5.581906E+07,   0.000000E+00
  2.000000E+04,   3.000000E+04,   2.500000E+04,   2.901741E+07,   0.000000E+00
  3.000000E+04,   4.000000E+04,   3.500000E+04,   1.945394E+07,   0.000000E+00
  4.000000E+04,   5.000000E+04,   4.500000E+04,   1.420816E+07,   0.000000E+00
  5.000000E+04,   6.000000E+04,   5.500000E+04,   1.087484E+07,   0.000000E+00
  6.000000E+04,   7.000000E+04,   6.500000E+04,   8.431699E+06,   0.000000E+00
  7.000000E+04,   8.000000E+04,   7.500000E+04,   6.661622E+06,   0.000000E+00
  8.000000E+04,   1.000000E+05,   9.000000E+04,   9.845816E+06,   0.000000E+00
  1.000000E+05,   1.500000E+05,   1.250000E+05,   1.384265E+07,   0.000000E+00
  1.500000E+05,   2.000000E+05,   1.750000E+05,   6.528177E+06,   0.000000E+00
  2.000000E+05,   3.000000E+05,   2.500000E+05,   3.909964E+06,   0.000000E+00
  3.000000E+05,   4.000000E+05,   3.500000E+05,   4.940018E+05,   0.000000E+00
  4.000000E+05,   5.000000E+05,   4.500000E+05,   6.462338E+02,   0.000000E+00
  5.000000E+05,   8.000000E+05,   6.500000E+05,   5.331928E+01,   0.000000E+00
  8.000000E+05,   1.000000E+06,   0.000000E+00,   0.000000E+00,   0.000000E+00
'End of File'
