'*',    13,     3,     4,     0,     5,     5,    46,     2
'OMNIDIRECTIONAL FLUENCE ANALYSIS'
'MULASSIS ml-v01-19'
'geant4-09-02-ref-00 (19-December-2008)'
'FLU_BDY', 1, 2, ' '
'FLU_PAR, -1, proton  '
'FLU_AMN', 1, 0., 'deg'
'FLU_AMX', 1, 90., 'deg'
'Elo','keV', 1, ' Lower edge of energy    bin '
'Eup','keV', 1, ' Upper edge of energy    bin '
'Emean','keV', 1, ' Mean energy of bin '
'Value','particles/cm2/bin',1,             'Fluence/flux'
'Error','particles/cm2/bin',1,'Error in   fluence/flux'
  0.000000E+00,   4.000000E+01,   2.000000E+01,   1.487540E+05,   0.000000E+00
  4.000000E+01,   1.000000E+02,   7.000000E+01,   2.231310E+05,   0.000000E+00
  1.000000E+02,   2.000000E+02,   1.500000E+02,   3.718850E+05,   0.000000E+00
  2.000000E+02,   3.000000E+02,   2.500000E+02,   3.718850E+05,   0.000000E+00
  3.000000E+02,   4.000000E+02,   3.500000E+02,   3.718850E+05,   0.000000E+00
  4.000000E+02,   5.000000E+02,   4.500000E+02,   3.718850E+05,   0.000000E+00
  5.000000E+02,   6.000000E+02,   5.500000E+02,   3.819050E+05,   0.000000E+00
  6.000000E+02,   7.000000E+02,   6.500000E+02,   4.396318E+05,   0.000000E+00
  7.000000E+02,   8.000000E+02,   7.500000E+02,   4.396318E+05,   0.000000E+00
  8.000000E+02,   1.000000E+03,   9.000000E+02,   9.956289E+05,   0.000000E+00
  1.000000E+03,   1.250000E+03,   1.125000E+03,   1.441141E+06,   0.000000E+00
  1.250000E+03,   1.500000E+03,   1.375000E+03,   1.712844E+06,   0.000000E+00
  1.500000E+03,   1.750000E+03,   1.625000E+03,   1.897129E+06,   0.000000E+00
  1.750000E+03,   2.000000E+03,   1.875000E+03,   2.219426E+06,   0.000000E+00
  2.000000E+03,   2.250000E+03,   2.125000E+03,   2.350830E+06,   0.000000E+00
  2.250000E+03,   2.500000E+03,   2.375000E+03,   2.572465E+06,   0.000000E+00
  2.500000E+03,   2.750000E+03,   2.625000E+03,   2.894990E+06,   0.000000E+00
  2.750000E+03,   3.000000E+03,   2.875000E+03,   3.012077E+06,   0.000000E+00
  3.000000E+03,   3.250000E+03,   3.125000E+03,   3.283469E+06,   0.000000E+00
  3.250000E+03,   3.500000E+03,   3.375000E+03,   3.549125E+06,   0.000000E+00
  3.500000E+03,   3.750000E+03,   3.625000E+03,   3.853719E+06,   0.000000E+00
  3.750000E+03,   4.000000E+03,   3.875000E+03,   3.962088E+06,   0.000000E+00
  4.000000E+03,   4.250000E+03,   4.125000E+03,   4.308617E+06,   0.000000E+00
  4.250000E+03,   4.500000E+03,   4.375000E+03,   4.691153E+06,   0.000000E+00
  4.500000E+03,   4.750000E+03,   4.625000E+03,   4.855704E+06,   0.000000E+00
  4.750000E+03,   5.000000E+03,   4.875000E+03,   5.184959E+06,   0.000000E+00
  5.000000E+03,   5.500000E+03,   5.250000E+03,   1.152699E+07,   0.000000E+00
  5.500000E+03,   6.000000E+03,   5.750000E+03,   1.288475E+07,   0.000000E+00
  6.000000E+03,   6.500000E+03,   6.250000E+03,   1.449206E+07,   0.000000E+00
  6.500000E+03,   7.000000E+03,   6.750000E+03,   1.682193E+07,   0.000000E+00
  7.000000E+03,   1.000000E+04,   8.500000E+03,   1.385094E+08,   0.000000E+00
  1.000000E+04,   2.000000E+04,   1.500000E+04,   4.969904E+08,   0.000000E+00
  2.000000E+04,   3.000000E+04,   2.500000E+04,   3.761981E+08,   0.000000E+00
  3.000000E+04,   4.000000E+04,   3.500000E+04,   2.854086E+08,   0.000000E+00
  4.000000E+04,   5.000000E+04,   4.500000E+04,   2.072959E+08,   0.000000E+00
  5.000000E+04,   6.000000E+04,   5.500000E+04,   1.568919E+08,   0.000000E+00
  6.000000E+04,   7.000000E+04,   6.500000E+04,   9.536597E+07,   0.000000E+00
  7.000000E+04,   8.000000E+04,   7.500000E+04,   8.084170E+07,   0.000000E+00
  8.000000E+04,   1.000000E+05,   9.000000E+04,   1.020024E+08,   0.000000E+00
  1.000000E+05,   1.500000E+05,   1.250000E+05,   8.948617E+07,   0.000000E+00
  1.500000E+05,   2.000000E+05,   1.750000E+05,   3.543057E+07,   0.000000E+00
  2.000000E+05,   3.000000E+05,   2.500000E+05,   2.942477E+07,   0.000000E+00
  3.000000E+05,   4.000000E+05,   3.500000E+05,   8.178544E+06,   0.000000E+00
  4.000000E+05,   5.000000E+05,   4.500000E+05,   2.188359E+06,   0.000000E+00
  5.000000E+05,   8.000000E+05,   6.500000E+05,   8.327115E+05,   0.000000E+00
  8.000000E+05,   1.000000E+06,   0.000000E+00,   0.000000E+00,   0.000000E+00
'End of Block'
'*',    13,     3,     4,     0,     5,     5,    46,     1
'OMNIDIRECTIONAL FLUENCE ANALYSIS'
'MULASSIS ml-v01-19'
'geant4-09-02-ref-00 (19-December-2008)'
'FLU_BDY', 1, 2, ' '
'FLU_PAR, -1, e-      '
'FLU_AMN', 1, 0., 'deg'
'FLU_AMX', 1, 90., 'deg'
'Elo','keV', 1, ' Lower edge of energy    bin '
'Eup','keV', 1, ' Upper edge of energy    bin '
'Emean','keV', 1, ' Mean energy of bin '
'Value','particles/cm2/bin',1,             'Fluence/flux'
'Error','particles/cm2/bin',1,'Error in   fluence/flux'
  0.000000E+00,   4.000000E+01,   2.000000E+01,   5.374086E+11,   0.000000E+00
  4.000000E+01,   1.000000E+02,   7.000000E+01,   6.160271E+11,   0.000000E+00
  1.000000E+02,   2.000000E+02,   1.500000E+02,   8.276905E+11,   0.000000E+00
  2.000000E+02,   3.000000E+02,   2.500000E+02,   9.353662E+11,   0.000000E+00
  3.000000E+02,   4.000000E+02,   3.500000E+02,   1.106910E+12,   0.000000E+00
  4.000000E+02,   5.000000E+02,   4.500000E+02,   1.255095E+12,   0.000000E+00
  5.000000E+02,   6.000000E+02,   5.500000E+02,   1.342062E+12,   0.000000E+00
  6.000000E+02,   7.000000E+02,   6.500000E+02,   1.355985E+12,   0.000000E+00
  7.000000E+02,   8.000000E+02,   7.500000E+02,   1.333842E+12,   0.000000E+00
  8.000000E+02,   1.000000E+03,   9.000000E+02,   2.426726E+12,   0.000000E+00
  1.000000E+03,   1.250000E+03,   1.125000E+03,   2.483531E+12,   0.000000E+00
  1.250000E+03,   1.500000E+03,   1.375000E+03,   1.823755E+12,   0.000000E+00
  1.500000E+03,   1.750000E+03,   1.625000E+03,   1.277733E+12,   0.000000E+00
  1.750000E+03,   2.000000E+03,   1.875000E+03,   8.374827E+11,   0.000000E+00
  2.000000E+03,   2.250000E+03,   2.125000E+03,   5.046900E+11,   0.000000E+00
  2.250000E+03,   2.500000E+03,   2.375000E+03,   2.829049E+11,   0.000000E+00
  2.500000E+03,   2.750000E+03,   2.625000E+03,   1.536630E+11,   0.000000E+00
  2.750000E+03,   3.000000E+03,   2.875000E+03,   8.477476E+10,   0.000000E+00
  3.000000E+03,   3.250000E+03,   3.125000E+03,   4.479956E+10,   0.000000E+00
  3.250000E+03,   3.500000E+03,   3.375000E+03,   2.297870E+10,   0.000000E+00
  3.500000E+03,   3.750000E+03,   3.625000E+03,   1.130747E+10,   0.000000E+00
  3.750000E+03,   4.000000E+03,   3.875000E+03,   5.344674E+09,   0.000000E+00
  4.000000E+03,   4.250000E+03,   4.125000E+03,   2.229000E+09,   0.000000E+00
  4.250000E+03,   4.500000E+03,   4.375000E+03,   8.417622E+08,   0.000000E+00
  4.500000E+03,   4.750000E+03,   4.625000E+03,   2.923649E+08,   0.000000E+00
  4.750000E+03,   5.000000E+03,   4.875000E+03,   9.165322E+07,   0.000000E+00
  5.000000E+03,   5.500000E+03,   5.250000E+03,   3.042071E+07,   0.000000E+00
  5.500000E+03,   6.000000E+03,   5.750000E+03,   2.682581E+05,   0.000000E+00
  6.000000E+03,   6.500000E+03,   6.250000E+03,   1.184772E+04,   0.000000E+00
  6.500000E+03,   7.000000E+03,   6.750000E+03,   1.184772E+04,   0.000000E+00
  7.000000E+03,   1.000000E+04,   8.500000E+03,   7.108633E+04,   0.000000E+00
  1.000000E+04,   2.000000E+04,   1.500000E+04,   2.369544E+05,   0.000000E+00
  2.000000E+04,   3.000000E+04,   2.500000E+04,   1.391146E+05,   0.000000E+00
  3.000000E+04,   4.000000E+04,   3.500000E+04,   4.459655E+04,   0.000000E+00
  4.000000E+04,   5.000000E+04,   4.500000E+04,   1.864151E+04,   0.000000E+00
  5.000000E+04,   6.000000E+04,   5.500000E+04,   9.781188E+03,   0.000000E+00
  6.000000E+04,   7.000000E+04,   6.500000E+04,   5.606301E+03,   0.000000E+00
  7.000000E+04,   8.000000E+04,   7.500000E+04,   3.209634E+03,   0.000000E+00
  8.000000E+04,   1.000000E+05,   9.000000E+04,   3.428708E+03,   0.000000E+00
  1.000000E+05,   1.500000E+05,   1.250000E+05,   3.244718E+03,   0.000000E+00
  1.500000E+05,   2.000000E+05,   1.750000E+05,   9.887709E+02,   0.000000E+00
  2.000000E+05,   3.000000E+05,   2.500000E+05,   5.523549E+02,   0.000000E+00
  3.000000E+05,   4.000000E+05,   3.500000E+05,   1.561417E+02,   0.000000E+00
  4.000000E+05,   5.000000E+05,   4.500000E+05,   4.788927E+01,   0.000000E+00
  5.000000E+05,   8.000000E+05,   6.500000E+05,   6.235257E+00,   0.000000E+00
  8.000000E+05,   1.000000E+06,   0.000000E+00,   0.000000E+00,   0.000000E+00
'End of Block'
'*',    13,     3,     4,     0,     5,     5,    46,    -1
'OMNIDIRECTIONAL FLUENCE ANALYSIS'
'MULASSIS ml-v01-19'
'geant4-09-02-ref-00 (19-December-2008)'
'FLU_BDY', 1, 2, ' '
'FLU_PAR, -1, neutron '
'FLU_AMN', 1, 0., 'deg'
'FLU_AMX', 1, 90., 'deg'
'Elo','keV', 1, ' Lower edge of energy    bin '
'Eup','keV', 1, ' Upper edge of energy    bin '
'Emean','keV', 1, ' Mean energy of bin '
'Value','particles/cm2/bin',1,             'Fluence/flux'
'Error','particles/cm2/bin',1,'Error in   fluence/flux'
  0.000000E+00,   4.000000E+01,   2.000000E+01,   1.529454E+05,   0.000000E+00
  4.000000E+01,   1.000000E+02,   7.000000E+01,   2.294181E+05,   0.000000E+00
  1.000000E+02,   2.000000E+02,   1.500000E+02,   3.823635E+05,   0.000000E+00
  2.000000E+02,   3.000000E+02,   2.500000E+02,   3.823635E+05,   0.000000E+00
  3.000000E+02,   4.000000E+02,   3.500000E+02,   3.823635E+05,   0.000000E+00
  4.000000E+02,   5.000000E+02,   4.500000E+02,   3.823635E+05,   0.000000E+00
  5.000000E+02,   6.000000E+02,   5.500000E+02,   3.806281E+05,   0.000000E+00
  6.000000E+02,   7.000000E+02,   6.500000E+02,   3.706305E+05,   0.000000E+00
  7.000000E+02,   8.000000E+02,   7.500000E+02,   3.706305E+05,   0.000000E+00
  8.000000E+02,   1.000000E+03,   9.000000E+02,   7.211167E+05,   0.000000E+00
  1.000000E+03,   1.250000E+03,   1.125000E+03,   8.679097E+05,   0.000000E+00
  1.250000E+03,   1.500000E+03,   1.375000E+03,   8.219862E+05,   0.000000E+00
  1.500000E+03,   1.750000E+03,   1.625000E+03,   7.852901E+05,   0.000000E+00
  1.750000E+03,   2.000000E+03,   1.875000E+03,   7.276494E+05,   0.000000E+00
  2.000000E+03,   2.250000E+03,   2.125000E+03,   6.903400E+05,   0.000000E+00
  2.250000E+03,   2.500000E+03,   2.375000E+03,   6.505041E+05,   0.000000E+00
  2.500000E+03,   2.750000E+03,   2.625000E+03,   5.976383E+05,   0.000000E+00
  2.750000E+03,   3.000000E+03,   2.875000E+03,   5.727892E+05,   0.000000E+00
  3.000000E+03,   3.250000E+03,   3.125000E+03,   5.276995E+05,   0.000000E+00
  3.250000E+03,   3.500000E+03,   3.375000E+03,   4.949361E+05,   0.000000E+00
  3.500000E+03,   3.750000E+03,   3.625000E+03,   4.664512E+05,   0.000000E+00
  3.750000E+03,   4.000000E+03,   3.875000E+03,   4.398754E+05,   0.000000E+00
  4.000000E+03,   4.250000E+03,   4.125000E+03,   4.144356E+05,   0.000000E+00
  4.250000E+03,   4.500000E+03,   4.375000E+03,   3.837483E+05,   0.000000E+00
  4.500000E+03,   4.750000E+03,   4.625000E+03,   3.693321E+05,   0.000000E+00
  4.750000E+03,   5.000000E+03,   4.875000E+03,   3.436617E+05,   0.000000E+00
  5.000000E+03,   5.500000E+03,   5.250000E+03,   6.351608E+05,   0.000000E+00
  5.500000E+03,   6.000000E+03,   5.750000E+03,   5.740955E+05,   0.000000E+00
  6.000000E+03,   6.500000E+03,   6.250000E+03,   5.101240E+05,   0.000000E+00
  6.500000E+03,   7.000000E+03,   6.750000E+03,   4.625399E+05,   0.000000E+00
  7.000000E+03,   1.000000E+04,   8.500000E+03,   2.055411E+06,   0.000000E+00
  1.000000E+04,   2.000000E+04,   1.500000E+04,   3.182004E+06,   0.000000E+00
  2.000000E+04,   3.000000E+04,   2.500000E+04,   1.418431E+06,   0.000000E+00
  3.000000E+04,   4.000000E+04,   3.500000E+04,   7.811321E+05,   0.000000E+00
  4.000000E+04,   5.000000E+04,   4.500000E+04,   4.695121E+05,   0.000000E+00
  5.000000E+04,   6.000000E+04,   5.500000E+04,   2.967803E+05,   0.000000E+00
  6.000000E+04,   7.000000E+04,   6.500000E+04,   1.925156E+05,   0.000000E+00
  7.000000E+04,   8.000000E+04,   7.500000E+04,   1.310906E+05,   0.000000E+00
  8.000000E+04,   1.000000E+05,   9.000000E+04,   1.647849E+05,   0.000000E+00
  1.000000E+05,   1.500000E+05,   1.250000E+05,   1.978877E+05,   0.000000E+00
  1.500000E+05,   2.000000E+05,   1.750000E+05,   8.298296E+04,   0.000000E+00
  2.000000E+05,   3.000000E+05,   2.500000E+05,   5.411707E+04,   0.000000E+00
  3.000000E+05,   4.000000E+05,   3.500000E+05,   9.659281E+03,   0.000000E+00
  4.000000E+05,   5.000000E+05,   4.500000E+05,   2.285194E+03,   0.000000E+00
  5.000000E+05,   8.000000E+05,   6.500000E+05,   1.881973E+02,   0.000000E+00
  8.000000E+05,   1.000000E+06,   0.000000E+00,   0.000000E+00,   0.000000E+00
'End of File'
