'*',    13,     3,     4,     0,     5,     5,    46,     2
'OMNIDIRECTIONAL FLUENCE ANALYSIS'
'MULASSIS ml-v01-19'
'geant4-09-02-ref-00 (19-December-2008)'
'FLU_BDY', 1, 2, ' '
'FLU_PAR, -1, proton  '
'FLU_AMN', 1, 0., 'deg'
'FLU_AMX', 1, 90., 'deg'
'Elo','keV', 1, ' Lower edge of energy    bin '
'Eup','keV', 1, ' Upper edge of energy    bin '
'Emean','keV', 1, ' Mean energy of bin '
'Value','particles/cm2/bin',1,             'Fluence/flux'
'Error','particles/cm2/bin',1,'Error in   fluence/flux'
  0.000000E+00,   4.000000E+01,   2.000000E+01,   4.013384E+05,   0.000000E+00
  4.000000E+01,   1.000000E+02,   7.000000E+01,   6.020077E+05,   0.000000E+00
  1.000000E+02,   2.000000E+02,   1.500000E+02,   1.003346E+06,   0.000000E+00
  2.000000E+02,   3.000000E+02,   2.500000E+02,   1.003346E+06,   0.000000E+00
  3.000000E+02,   4.000000E+02,   3.500000E+02,   1.003346E+06,   0.000000E+00
  4.000000E+02,   5.000000E+02,   4.500000E+02,   1.003346E+06,   0.000000E+00
  5.000000E+02,   6.000000E+02,   5.500000E+02,   1.003346E+06,   0.000000E+00
  6.000000E+02,   7.000000E+02,   6.500000E+02,   1.003346E+06,   0.000000E+00
  7.000000E+02,   8.000000E+02,   7.500000E+02,   1.003346E+06,   0.000000E+00
  8.000000E+02,   1.000000E+03,   9.000000E+02,   2.139193E+06,   0.000000E+00
  1.000000E+03,   1.250000E+03,   1.125000E+03,   2.869678E+06,   0.000000E+00
  1.250000E+03,   1.500000E+03,   1.375000E+03,   3.091697E+06,   0.000000E+00
  1.500000E+03,   1.750000E+03,   1.625000E+03,   3.232876E+06,   0.000000E+00
  1.750000E+03,   2.000000E+03,   1.875000E+03,   3.603794E+06,   0.000000E+00
  2.000000E+03,   2.250000E+03,   2.125000E+03,   3.876535E+06,   0.000000E+00
  2.250000E+03,   2.500000E+03,   2.375000E+03,   4.068392E+06,   0.000000E+00
  2.500000E+03,   2.750000E+03,   2.625000E+03,   4.401815E+06,   0.000000E+00
  2.750000E+03,   3.000000E+03,   2.875000E+03,   4.866402E+06,   0.000000E+00
  3.000000E+03,   3.250000E+03,   3.125000E+03,   5.027697E+06,   0.000000E+00
  3.250000E+03,   3.500000E+03,   3.375000E+03,   5.238411E+06,   0.000000E+00
  3.500000E+03,   3.750000E+03,   3.625000E+03,   5.543362E+06,   0.000000E+00
  3.750000E+03,   4.000000E+03,   3.875000E+03,   6.000587E+06,   0.000000E+00
  4.000000E+03,   4.250000E+03,   4.125000E+03,   6.281017E+06,   0.000000E+00
  4.250000E+03,   4.500000E+03,   4.375000E+03,   6.293142E+06,   0.000000E+00
  4.500000E+03,   4.750000E+03,   4.625000E+03,   6.793371E+06,   0.000000E+00
  4.750000E+03,   5.000000E+03,   4.875000E+03,   7.084660E+06,   0.000000E+00
  5.000000E+03,   5.500000E+03,   5.250000E+03,   1.502592E+07,   0.000000E+00
  5.500000E+03,   6.000000E+03,   5.750000E+03,   1.622773E+07,   0.000000E+00
  6.000000E+03,   6.500000E+03,   6.250000E+03,   1.730178E+07,   0.000000E+00
  6.500000E+03,   7.000000E+03,   6.750000E+03,   1.871806E+07,   0.000000E+00
  7.000000E+03,   1.000000E+04,   8.500000E+03,   1.399034E+08,   0.000000E+00
  1.000000E+04,   2.000000E+04,   1.500000E+04,   7.495732E+08,   0.000000E+00
  2.000000E+04,   3.000000E+04,   2.500000E+04,   1.070907E+09,   0.000000E+00
  3.000000E+04,   4.000000E+04,   3.500000E+04,   1.265108E+09,   0.000000E+00
  4.000000E+04,   5.000000E+04,   4.500000E+04,   1.379822E+09,   0.000000E+00
  5.000000E+04,   6.000000E+04,   5.500000E+04,   1.394419E+09,   0.000000E+00
  6.000000E+04,   7.000000E+04,   6.500000E+04,   1.528938E+09,   0.000000E+00
  7.000000E+04,   8.000000E+04,   7.500000E+04,   1.435238E+09,   0.000000E+00
  8.000000E+04,   1.000000E+05,   9.000000E+04,   2.552791E+09,   0.000000E+00
  1.000000E+05,   1.500000E+05,   1.250000E+05,   3.789232E+09,   0.000000E+00
  1.500000E+05,   2.000000E+05,   1.750000E+05,   2.390699E+09,   0.000000E+00
  2.000000E+05,   3.000000E+05,   2.500000E+05,   2.418788E+09,   0.000000E+00
  3.000000E+05,   4.000000E+05,   3.500000E+05,   6.809966E+08,   0.000000E+00
  4.000000E+05,   5.000000E+05,   4.500000E+05,   2.376998E+06,   0.000000E+00
  5.000000E+05,   8.000000E+05,   6.500000E+05,   8.598141E+05,   0.000000E+00
  8.000000E+05,   1.000000E+06,   0.000000E+00,   0.000000E+00,   0.000000E+00
'End of Block'
'*',    13,     3,     4,     0,     5,     5,    46,     1
'OMNIDIRECTIONAL FLUENCE ANALYSIS'
'MULASSIS ml-v01-19'
'geant4-09-02-ref-00 (19-December-2008)'
'FLU_BDY', 1, 2, ' '
'FLU_PAR, -1, e-      '
'FLU_AMN', 1, 0., 'deg'
'FLU_AMX', 1, 90., 'deg'
'Elo','keV', 1, ' Lower edge of energy    bin '
'Eup','keV', 1, ' Upper edge of energy    bin '
'Emean','keV', 1, ' Mean energy of bin '
'Value','particles/cm2/bin',1,             'Fluence/flux'
'Error','particles/cm2/bin',1,'Error in   fluence/flux'
  0.000000E+00,   4.000000E+01,   2.000000E+01,   1.763321E+09,   0.000000E+00
  4.000000E+01,   1.000000E+02,   7.000000E+01,   1.673794E+09,   0.000000E+00
  1.000000E+02,   2.000000E+02,   1.500000E+02,   2.516330E+09,   0.000000E+00
  2.000000E+02,   3.000000E+02,   2.500000E+02,   2.504704E+09,   0.000000E+00
  3.000000E+02,   4.000000E+02,   3.500000E+02,   2.364955E+09,   0.000000E+00
  4.000000E+02,   5.000000E+02,   4.500000E+02,   2.160789E+09,   0.000000E+00
  5.000000E+02,   6.000000E+02,   5.500000E+02,   1.945835E+09,   0.000000E+00
  6.000000E+02,   7.000000E+02,   6.500000E+02,   1.725251E+09,   0.000000E+00
  7.000000E+02,   8.000000E+02,   7.500000E+02,   1.500668E+09,   0.000000E+00
  8.000000E+02,   1.000000E+03,   9.000000E+02,   2.375378E+09,   0.000000E+00
  1.000000E+03,   1.250000E+03,   1.125000E+03,   1.926180E+09,   0.000000E+00
  1.250000E+03,   1.500000E+03,   1.375000E+03,   1.044834E+09,   0.000000E+00
  1.500000E+03,   1.750000E+03,   1.625000E+03,   5.760772E+08,   0.000000E+00
  1.750000E+03,   2.000000E+03,   1.875000E+03,   3.312703E+08,   0.000000E+00
  2.000000E+03,   2.250000E+03,   2.125000E+03,   1.999884E+08,   0.000000E+00
  2.250000E+03,   2.500000E+03,   2.375000E+03,   1.198012E+08,   0.000000E+00
  2.500000E+03,   2.750000E+03,   2.625000E+03,   6.997427E+07,   0.000000E+00
  2.750000E+03,   3.000000E+03,   2.875000E+03,   3.878192E+07,   0.000000E+00
  3.000000E+03,   3.250000E+03,   3.125000E+03,   2.060937E+07,   0.000000E+00
  3.250000E+03,   3.500000E+03,   3.375000E+03,   1.063667E+07,   0.000000E+00
  3.500000E+03,   3.750000E+03,   3.625000E+03,   5.129040E+06,   0.000000E+00
  3.750000E+03,   4.000000E+03,   3.875000E+03,   2.402028E+06,   0.000000E+00
  4.000000E+03,   4.250000E+03,   4.125000E+03,   1.057581E+06,   0.000000E+00
  4.250000E+03,   4.500000E+03,   4.375000E+03,   3.697163E+05,   0.000000E+00
  4.500000E+03,   4.750000E+03,   4.625000E+03,   9.954997E+04,   0.000000E+00
  4.750000E+03,   5.000000E+03,   4.875000E+03,   2.611993E+04,   0.000000E+00
  5.000000E+03,   5.500000E+03,   5.250000E+03,   3.715543E+04,   0.000000E+00
  5.500000E+03,   6.000000E+03,   5.750000E+03,   3.583580E+04,   0.000000E+00
  6.000000E+03,   6.500000E+03,   6.250000E+03,   3.581586E+04,   0.000000E+00
  6.500000E+03,   7.000000E+03,   6.750000E+03,   3.581586E+04,   0.000000E+00
  7.000000E+03,   1.000000E+04,   8.500000E+03,   2.148952E+05,   0.000000E+00
  1.000000E+04,   2.000000E+04,   1.500000E+04,   7.163172E+05,   0.000000E+00
  2.000000E+04,   3.000000E+04,   2.500000E+04,   7.163172E+05,   0.000000E+00
  3.000000E+04,   4.000000E+04,   3.500000E+04,   6.055972E+05,   0.000000E+00
  4.000000E+04,   5.000000E+04,   4.500000E+04,   4.480483E+05,   0.000000E+00
  5.000000E+04,   6.000000E+04,   5.500000E+04,   3.489195E+05,   0.000000E+00
  6.000000E+04,   7.000000E+04,   6.500000E+04,   2.857229E+05,   0.000000E+00
  7.000000E+04,   8.000000E+04,   7.500000E+04,   2.353966E+05,   0.000000E+00
  8.000000E+04,   1.000000E+05,   9.000000E+04,   3.773071E+05,   0.000000E+00
  1.000000E+05,   1.500000E+05,   1.250000E+05,   5.301438E+05,   0.000000E+00
  1.500000E+05,   2.000000E+05,   1.750000E+05,   2.077425E+05,   0.000000E+00
  2.000000E+05,   3.000000E+05,   2.500000E+05,   1.092613E+05,   0.000000E+00
  3.000000E+05,   4.000000E+05,   3.500000E+05,   2.036615E+04,   0.000000E+00
  4.000000E+05,   5.000000E+05,   4.500000E+05,   1.291404E+02,   0.000000E+00
  5.000000E+05,   8.000000E+05,   6.500000E+05,   1.668728E+01,   0.000000E+00
  8.000000E+05,   1.000000E+06,   0.000000E+00,   0.000000E+00,   0.000000E+00
'End of Block'
'*',    13,     3,     4,     0,     5,     5,    46,    -1
'OMNIDIRECTIONAL FLUENCE ANALYSIS'
'MULASSIS ml-v01-19'
'geant4-09-02-ref-00 (19-December-2008)'
'FLU_BDY', 1, 2, ' '
'FLU_PAR, -1, neutron '
'FLU_AMN', 1, 0., 'deg'
'FLU_AMX', 1, 90., 'deg'
'Elo','keV', 1, ' Lower edge of energy    bin '
'Eup','keV', 1, ' Upper edge of energy    bin '
'Emean','keV', 1, ' Mean energy of bin '
'Value','particles/cm2/bin',1,             'Fluence/flux'
'Error','particles/cm2/bin',1,'Error in   fluence/flux'
  0.000000E+00,   4.000000E+01,   2.000000E+01,   1.526112E+06,   0.000000E+00
  4.000000E+01,   1.000000E+02,   7.000000E+01,   2.289169E+06,   0.000000E+00
  1.000000E+02,   2.000000E+02,   1.500000E+02,   3.815281E+06,   0.000000E+00
  2.000000E+02,   3.000000E+02,   2.500000E+02,   3.815281E+06,   0.000000E+00
  3.000000E+02,   4.000000E+02,   3.500000E+02,   3.815281E+06,   0.000000E+00
  4.000000E+02,   5.000000E+02,   4.500000E+02,   3.815281E+06,   0.000000E+00
  5.000000E+02,   6.000000E+02,   5.500000E+02,   3.815281E+06,   0.000000E+00
  6.000000E+02,   7.000000E+02,   6.500000E+02,   3.815281E+06,   0.000000E+00
  7.000000E+02,   8.000000E+02,   7.500000E+02,   3.815281E+06,   0.000000E+00
  8.000000E+02,   1.000000E+03,   9.000000E+02,   7.614795E+06,   0.000000E+00
  1.000000E+03,   1.250000E+03,   1.125000E+03,   9.495208E+06,   0.000000E+00
  1.250000E+03,   1.500000E+03,   1.375000E+03,   9.404342E+06,   0.000000E+00
  1.500000E+03,   1.750000E+03,   1.625000E+03,   9.322021E+06,   0.000000E+00
  1.750000E+03,   2.000000E+03,   1.875000E+03,   9.188249E+06,   0.000000E+00
  2.000000E+03,   2.250000E+03,   2.125000E+03,   9.032586E+06,   0.000000E+00
  2.250000E+03,   2.500000E+03,   2.375000E+03,   8.868325E+06,   0.000000E+00
  2.500000E+03,   2.750000E+03,   2.625000E+03,   8.683996E+06,   0.000000E+00
  2.750000E+03,   3.000000E+03,   2.875000E+03,   8.464724E+06,   0.000000E+00
  3.000000E+03,   3.250000E+03,   3.125000E+03,   8.279862E+06,   0.000000E+00
  3.250000E+03,   3.500000E+03,   3.375000E+03,   8.133278E+06,   0.000000E+00
  3.500000E+03,   3.750000E+03,   3.625000E+03,   7.846539E+06,   0.000000E+00
  3.750000E+03,   4.000000E+03,   3.875000E+03,   7.695105E+06,   0.000000E+00
  4.000000E+03,   4.250000E+03,   4.125000E+03,   7.344843E+06,   0.000000E+00
  4.250000E+03,   4.500000E+03,   4.375000E+03,   7.312836E+06,   0.000000E+00
  4.500000E+03,   4.750000E+03,   4.625000E+03,   6.911147E+06,   0.000000E+00
  4.750000E+03,   5.000000E+03,   4.875000E+03,   6.814109E+06,   0.000000E+00
  5.000000E+03,   5.500000E+03,   5.250000E+03,   1.286016E+07,   0.000000E+00
  5.500000E+03,   6.000000E+03,   5.750000E+03,   1.210484E+07,   0.000000E+00
  6.000000E+03,   6.500000E+03,   6.250000E+03,   1.134871E+07,   0.000000E+00
  6.500000E+03,   7.000000E+03,   6.750000E+03,   1.074222E+07,   0.000000E+00
  7.000000E+03,   1.000000E+04,   8.500000E+03,   5.189132E+07,   0.000000E+00
  1.000000E+04,   2.000000E+04,   1.500000E+04,   9.349332E+07,   0.000000E+00
  2.000000E+04,   3.000000E+04,   2.500000E+04,   4.854685E+07,   0.000000E+00
  3.000000E+04,   4.000000E+04,   3.500000E+04,   3.315455E+07,   0.000000E+00
  4.000000E+04,   5.000000E+04,   4.500000E+04,   2.436116E+07,   0.000000E+00
  5.000000E+04,   6.000000E+04,   5.500000E+04,   1.866647E+07,   0.000000E+00
  6.000000E+04,   7.000000E+04,   6.500000E+04,   1.465852E+07,   0.000000E+00
  7.000000E+04,   8.000000E+04,   7.500000E+04,   1.174273E+07,   0.000000E+00
  8.000000E+04,   1.000000E+05,   9.000000E+04,   1.749719E+07,   0.000000E+00
  1.000000E+05,   1.500000E+05,   1.250000E+05,   2.549604E+07,   0.000000E+00
  1.500000E+05,   2.000000E+05,   1.750000E+05,   1.217712E+07,   0.000000E+00
  2.000000E+05,   3.000000E+05,   2.500000E+05,   7.217453E+06,   0.000000E+00
  3.000000E+05,   4.000000E+05,   3.500000E+05,   8.741885E+05,   0.000000E+00
  4.000000E+05,   5.000000E+05,   4.500000E+05,   4.245721E+03,   0.000000E+00
  5.000000E+05,   8.000000E+05,   6.500000E+05,   2.822582E+02,   0.000000E+00
  8.000000E+05,   1.000000E+06,   0.000000E+00,   0.000000E+00,   0.000000E+00
'End of File'
