'*',    13,     3,     4,     0,     5,     5,    46,     2
'OMNIDIRECTIONAL FLUENCE ANALYSIS'
'MULASSIS ml-v01-19'
'geant4-09-02-ref-00 (19-December-2008)'
'FLU_BDY', 1, 2, ' '
'FLU_PAR, -1, proton  '
'FLU_AMN', 1, 0., 'deg'
'FLU_AMX', 1, 90., 'deg'
'Elo','keV', 1, ' Lower edge of energy    bin '
'Eup','keV', 1, ' Upper edge of energy    bin '
'Emean','keV', 1, ' Mean energy of bin '
'Value','particles/cm2/bin',1,             'Fluence/flux'
'Error','particles/cm2/bin',1,'Error in   fluence/flux'
  0.000000E+00,   4.000000E+01,   2.000000E+01,   1.164752E+05,   0.000000E+00
  4.000000E+01,   1.000000E+02,   7.000000E+01,   1.747129E+05,   0.000000E+00
  1.000000E+02,   2.000000E+02,   1.500000E+02,   2.911881E+05,   0.000000E+00
  2.000000E+02,   3.000000E+02,   2.500000E+02,   2.911881E+05,   0.000000E+00
  3.000000E+02,   4.000000E+02,   3.500000E+02,   2.911881E+05,   0.000000E+00
  4.000000E+02,   5.000000E+02,   4.500000E+02,   2.911881E+05,   0.000000E+00
  5.000000E+02,   6.000000E+02,   5.500000E+02,   2.911881E+05,   0.000000E+00
  6.000000E+02,   7.000000E+02,   6.500000E+02,   2.911881E+05,   0.000000E+00
  7.000000E+02,   8.000000E+02,   7.500000E+02,   2.911881E+05,   0.000000E+00
  8.000000E+02,   1.000000E+03,   9.000000E+02,   6.469689E+05,   0.000000E+00
  1.000000E+03,   1.250000E+03,   1.125000E+03,   9.041063E+05,   0.000000E+00
  1.250000E+03,   1.500000E+03,   1.375000E+03,   1.005113E+06,   0.000000E+00
  1.500000E+03,   1.750000E+03,   1.625000E+03,   1.063930E+06,   0.000000E+00
  1.750000E+03,   2.000000E+03,   1.875000E+03,   1.230334E+06,   0.000000E+00
  2.000000E+03,   2.250000E+03,   2.125000E+03,   1.335590E+06,   0.000000E+00
  2.250000E+03,   2.500000E+03,   2.375000E+03,   1.395581E+06,   0.000000E+00
  2.500000E+03,   2.750000E+03,   2.625000E+03,   1.527636E+06,   0.000000E+00
  2.750000E+03,   3.000000E+03,   2.875000E+03,   1.715597E+06,   0.000000E+00
  3.000000E+03,   3.250000E+03,   3.125000E+03,   1.759923E+06,   0.000000E+00
  3.250000E+03,   3.500000E+03,   3.375000E+03,   1.837286E+06,   0.000000E+00
  3.500000E+03,   3.750000E+03,   3.625000E+03,   1.939785E+06,   0.000000E+00
  3.750000E+03,   4.000000E+03,   3.875000E+03,   2.136731E+06,   0.000000E+00
  4.000000E+03,   4.250000E+03,   4.125000E+03,   2.213468E+06,   0.000000E+00
  4.250000E+03,   4.500000E+03,   4.375000E+03,   2.215269E+06,   0.000000E+00
  4.500000E+03,   4.750000E+03,   4.625000E+03,   2.397749E+06,   0.000000E+00
  4.750000E+03,   5.000000E+03,   4.875000E+03,   2.513214E+06,   0.000000E+00
  5.000000E+03,   5.500000E+03,   5.250000E+03,   5.332720E+06,   0.000000E+00
  5.500000E+03,   6.000000E+03,   5.750000E+03,   5.787227E+06,   0.000000E+00
  6.000000E+03,   6.500000E+03,   6.250000E+03,   6.163300E+06,   0.000000E+00
  6.500000E+03,   7.000000E+03,   6.750000E+03,   6.747950E+06,   0.000000E+00
  7.000000E+03,   1.000000E+04,   8.500000E+03,   5.082818E+07,   0.000000E+00
  1.000000E+04,   2.000000E+04,   1.500000E+04,   2.617261E+08,   0.000000E+00
  2.000000E+04,   3.000000E+04,   2.500000E+04,   3.165699E+08,   0.000000E+00
  3.000000E+04,   4.000000E+04,   3.500000E+04,   3.121864E+08,   0.000000E+00
  4.000000E+04,   5.000000E+04,   4.500000E+04,   2.823696E+08,   0.000000E+00
  5.000000E+04,   6.000000E+04,   5.500000E+04,   2.322572E+08,   0.000000E+00
  6.000000E+04,   7.000000E+04,   6.500000E+04,   2.243612E+08,   0.000000E+00
  7.000000E+04,   8.000000E+04,   7.500000E+04,   1.915351E+08,   0.000000E+00
  8.000000E+04,   1.000000E+05,   9.000000E+04,   2.901580E+08,   0.000000E+00
  1.000000E+05,   1.500000E+05,   1.250000E+05,   3.555121E+08,   0.000000E+00
  1.500000E+05,   2.000000E+05,   1.750000E+05,   1.813400E+08,   0.000000E+00
  2.000000E+05,   3.000000E+05,   2.500000E+05,   1.543545E+08,   0.000000E+00
  3.000000E+05,   4.000000E+05,   3.500000E+05,   1.924063E+07,   0.000000E+00
  4.000000E+05,   5.000000E+05,   4.500000E+05,   2.376998E+06,   0.000000E+00
  5.000000E+05,   8.000000E+05,   6.500000E+05,   8.598141E+05,   0.000000E+00
  8.000000E+05,   1.000000E+06,   0.000000E+00,   0.000000E+00,   0.000000E+00
'End of Block'
'*',    13,     3,     4,     0,     5,     5,    46,     1
'OMNIDIRECTIONAL FLUENCE ANALYSIS'
'MULASSIS ml-v01-19'
'geant4-09-02-ref-00 (19-December-2008)'
'FLU_BDY', 1, 2, ' '
'FLU_PAR, -1, e-      '
'FLU_AMN', 1, 0., 'deg'
'FLU_AMX', 1, 90., 'deg'
'Elo','keV', 1, ' Lower edge of energy    bin '
'Eup','keV', 1, ' Upper edge of energy    bin '
'Emean','keV', 1, ' Mean energy of bin '
'Value','particles/cm2/bin',1,             'Fluence/flux'
'Error','particles/cm2/bin',1,'Error in   fluence/flux'
  0.000000E+00,   4.000000E+01,   2.000000E+01,   3.240067E+08,   0.000000E+00
  4.000000E+01,   1.000000E+02,   7.000000E+01,   2.790720E+08,   0.000000E+00
  1.000000E+02,   2.000000E+02,   1.500000E+02,   4.376657E+08,   0.000000E+00
  2.000000E+02,   3.000000E+02,   2.500000E+02,   4.514142E+08,   0.000000E+00
  3.000000E+02,   4.000000E+02,   3.500000E+02,   4.342910E+08,   0.000000E+00
  4.000000E+02,   5.000000E+02,   4.500000E+02,   4.015570E+08,   0.000000E+00
  5.000000E+02,   6.000000E+02,   5.500000E+02,   3.648718E+08,   0.000000E+00
  6.000000E+02,   7.000000E+02,   6.500000E+02,   3.259145E+08,   0.000000E+00
  7.000000E+02,   8.000000E+02,   7.500000E+02,   2.854749E+08,   0.000000E+00
  8.000000E+02,   1.000000E+03,   9.000000E+02,   4.561046E+08,   0.000000E+00
  1.000000E+03,   1.250000E+03,   1.125000E+03,   3.771502E+08,   0.000000E+00
  1.250000E+03,   1.500000E+03,   1.375000E+03,   2.120855E+08,   0.000000E+00
  1.500000E+03,   1.750000E+03,   1.625000E+03,   1.216426E+08,   0.000000E+00
  1.750000E+03,   2.000000E+03,   1.875000E+03,   7.308992E+07,   0.000000E+00
  2.000000E+03,   2.250000E+03,   2.125000E+03,   4.584287E+07,   0.000000E+00
  2.250000E+03,   2.500000E+03,   2.375000E+03,   2.856172E+07,   0.000000E+00
  2.500000E+03,   2.750000E+03,   2.625000E+03,   1.735831E+07,   0.000000E+00
  2.750000E+03,   3.000000E+03,   2.875000E+03,   9.975107E+06,   0.000000E+00
  3.000000E+03,   3.250000E+03,   3.125000E+03,   5.530879E+06,   0.000000E+00
  3.250000E+03,   3.500000E+03,   3.375000E+03,   3.045639E+06,   0.000000E+00
  3.500000E+03,   3.750000E+03,   3.625000E+03,   1.547584E+06,   0.000000E+00
  3.750000E+03,   4.000000E+03,   3.875000E+03,   7.319078E+05,   0.000000E+00
  4.000000E+03,   4.250000E+03,   4.125000E+03,   3.247073E+05,   0.000000E+00
  4.250000E+03,   4.500000E+03,   4.375000E+03,   1.186255E+05,   0.000000E+00
  4.500000E+03,   4.750000E+03,   4.625000E+03,   3.237177E+04,   0.000000E+00
  4.750000E+03,   5.000000E+03,   4.875000E+03,   7.527220E+03,   0.000000E+00
  5.000000E+03,   5.500000E+03,   5.250000E+03,   1.002462E+04,   0.000000E+00
  5.500000E+03,   6.000000E+03,   5.750000E+03,   9.581341E+03,   0.000000E+00
  6.000000E+03,   6.500000E+03,   6.250000E+03,   9.574951E+03,   0.000000E+00
  6.500000E+03,   7.000000E+03,   6.750000E+03,   9.574951E+03,   0.000000E+00
  7.000000E+03,   1.000000E+04,   8.500000E+03,   5.744971E+04,   0.000000E+00
  1.000000E+04,   2.000000E+04,   1.500000E+04,   1.914990E+05,   0.000000E+00
  2.000000E+04,   3.000000E+04,   2.500000E+04,   1.914990E+05,   0.000000E+00
  3.000000E+04,   4.000000E+04,   3.500000E+04,   1.393009E+05,   0.000000E+00
  4.000000E+04,   5.000000E+04,   4.500000E+04,   7.636056E+04,   0.000000E+00
  5.000000E+04,   6.000000E+04,   5.500000E+04,   4.757844E+04,   0.000000E+00
  6.000000E+04,   7.000000E+04,   6.500000E+04,   3.333018E+04,   0.000000E+00
  7.000000E+04,   8.000000E+04,   7.500000E+04,   2.463718E+04,   0.000000E+00
  8.000000E+04,   1.000000E+05,   9.000000E+04,   3.588929E+04,   0.000000E+00
  1.000000E+05,   1.500000E+05,   1.250000E+05,   4.332135E+04,   0.000000E+00
  1.500000E+05,   2.000000E+05,   1.750000E+05,   1.393809E+04,   0.000000E+00
  2.000000E+05,   3.000000E+05,   2.500000E+05,   5.643096E+03,   0.000000E+00
  3.000000E+05,   4.000000E+05,   3.500000E+05,   3.666358E+02,   0.000000E+00
  4.000000E+05,   5.000000E+05,   4.500000E+05,   1.291404E+02,   0.000000E+00
  5.000000E+05,   8.000000E+05,   6.500000E+05,   1.668728E+01,   0.000000E+00
  8.000000E+05,   1.000000E+06,   0.000000E+00,   0.000000E+00,   0.000000E+00
'End of Block'
'*',    13,     3,     4,     0,     5,     5,    46,    -1
'OMNIDIRECTIONAL FLUENCE ANALYSIS'
'MULASSIS ml-v01-19'
'geant4-09-02-ref-00 (19-December-2008)'
'FLU_BDY', 1, 2, ' '
'FLU_PAR, -1, neutron '
'FLU_AMN', 1, 0., 'deg'
'FLU_AMX', 1, 90., 'deg'
'Elo','keV', 1, ' Lower edge of energy    bin '
'Eup','keV', 1, ' Upper edge of energy    bin '
'Emean','keV', 1, ' Mean energy of bin '
'Value','particles/cm2/bin',1,             'Fluence/flux'
'Error','particles/cm2/bin',1,'Error in   fluence/flux'
  0.000000E+00,   4.000000E+01,   2.000000E+01,   2.847226E+05,   0.000000E+00
  4.000000E+01,   1.000000E+02,   7.000000E+01,   4.270839E+05,   0.000000E+00
  1.000000E+02,   2.000000E+02,   1.500000E+02,   7.118065E+05,   0.000000E+00
  2.000000E+02,   3.000000E+02,   2.500000E+02,   7.118065E+05,   0.000000E+00
  3.000000E+02,   4.000000E+02,   3.500000E+02,   7.118065E+05,   0.000000E+00
  4.000000E+02,   5.000000E+02,   4.500000E+02,   7.118065E+05,   0.000000E+00
  5.000000E+02,   6.000000E+02,   5.500000E+02,   7.118065E+05,   0.000000E+00
  6.000000E+02,   7.000000E+02,   6.500000E+02,   7.118065E+05,   0.000000E+00
  7.000000E+02,   8.000000E+02,   7.500000E+02,   7.118065E+05,   0.000000E+00
  8.000000E+02,   1.000000E+03,   9.000000E+02,   1.415927E+06,   0.000000E+00
  1.000000E+03,   1.250000E+03,   1.125000E+03,   1.758557E+06,   0.000000E+00
  1.250000E+03,   1.500000E+03,   1.375000E+03,   1.717218E+06,   0.000000E+00
  1.500000E+03,   1.750000E+03,   1.625000E+03,   1.683007E+06,   0.000000E+00
  1.750000E+03,   2.000000E+03,   1.875000E+03,   1.627544E+06,   0.000000E+00
  2.000000E+03,   2.250000E+03,   2.125000E+03,   1.572225E+06,   0.000000E+00
  2.250000E+03,   2.500000E+03,   2.375000E+03,   1.520862E+06,   0.000000E+00
  2.500000E+03,   2.750000E+03,   2.625000E+03,   1.456975E+06,   0.000000E+00
  2.750000E+03,   3.000000E+03,   2.875000E+03,   1.389499E+06,   0.000000E+00
  3.000000E+03,   3.250000E+03,   3.125000E+03,   1.342942E+06,   0.000000E+00
  3.250000E+03,   3.500000E+03,   3.375000E+03,   1.295337E+06,   0.000000E+00
  3.500000E+03,   3.750000E+03,   3.625000E+03,   1.234359E+06,   0.000000E+00
  3.750000E+03,   4.000000E+03,   3.875000E+03,   1.182866E+06,   0.000000E+00
  4.000000E+03,   4.250000E+03,   4.125000E+03,   1.110578E+06,   0.000000E+00
  4.250000E+03,   4.500000E+03,   4.375000E+03,   1.105823E+06,   0.000000E+00
  4.500000E+03,   4.750000E+03,   4.625000E+03,   1.027612E+06,   0.000000E+00
  4.750000E+03,   5.000000E+03,   4.875000E+03,   9.927549E+05,   0.000000E+00
  5.000000E+03,   5.500000E+03,   5.250000E+03,   1.845586E+06,   0.000000E+00
  5.500000E+03,   6.000000E+03,   5.750000E+03,   1.702382E+06,   0.000000E+00
  6.000000E+03,   6.500000E+03,   6.250000E+03,   1.566418E+06,   0.000000E+00
  6.500000E+03,   7.000000E+03,   6.750000E+03,   1.460492E+06,   0.000000E+00
  7.000000E+03,   1.000000E+04,   8.500000E+03,   6.757707E+06,   0.000000E+00
  1.000000E+04,   2.000000E+04,   1.500000E+04,   1.153593E+07,   0.000000E+00
  2.000000E+04,   3.000000E+04,   2.500000E+04,   5.834271E+06,   0.000000E+00
  3.000000E+04,   4.000000E+04,   3.500000E+04,   3.740104E+06,   0.000000E+00
  4.000000E+04,   5.000000E+04,   4.500000E+04,   2.537312E+06,   0.000000E+00
  5.000000E+04,   6.000000E+04,   5.500000E+04,   1.814299E+06,   0.000000E+00
  6.000000E+04,   7.000000E+04,   6.500000E+04,   1.334759E+06,   0.000000E+00
  7.000000E+04,   8.000000E+04,   7.500000E+04,   1.010019E+06,   0.000000E+00
  8.000000E+04,   1.000000E+05,   9.000000E+04,   1.403544E+06,   0.000000E+00
  1.000000E+05,   1.500000E+05,   1.250000E+05,   1.830787E+06,   0.000000E+00
  1.500000E+05,   2.000000E+05,   1.750000E+05,   7.617247E+05,   0.000000E+00
  2.000000E+05,   3.000000E+05,   2.500000E+05,   3.685374E+05,   0.000000E+00
  3.000000E+05,   4.000000E+05,   3.500000E+05,   1.192892E+04,   0.000000E+00
  4.000000E+05,   5.000000E+05,   4.500000E+05,   4.245721E+03,   0.000000E+00
  5.000000E+05,   8.000000E+05,   6.500000E+05,   2.822582E+02,   0.000000E+00
  8.000000E+05,   1.000000E+06,   0.000000E+00,   0.000000E+00,   0.000000E+00
'End of File'
