'*',    13,     3,     4,     0,     5,     5,    46,     2
'OMNIDIRECTIONAL FLUENCE ANALYSIS'
'MULASSIS ml-v01-19'
'geant4-09-02-ref-00 (19-December-2008)'
'FLU_BDY', 1, 2, ' '
'FLU_PAR, -1, proton  '
'FLU_AMN', 1, 0., 'deg'
'FLU_AMX', 1, 90., 'deg'
'Elo','keV', 1, ' Lower edge of energy    bin '
'Eup','keV', 1, ' Upper edge of energy    bin '
'Emean','keV', 1, ' Mean energy of bin '
'Value','particles/cm2/bin',1,             'Fluence/flux'
'Error','particles/cm2/bin',1,'Error in   fluence/flux'
  0.000000E+00,   4.000000E+01,   2.000000E+01,   1.169010E+05,   0.000000E+00
  4.000000E+01,   1.000000E+02,   7.000000E+01,   1.753516E+05,   0.000000E+00
  1.000000E+02,   2.000000E+02,   1.500000E+02,   2.922526E+05,   0.000000E+00
  2.000000E+02,   3.000000E+02,   2.500000E+02,   2.922526E+05,   0.000000E+00
  3.000000E+02,   4.000000E+02,   3.500000E+02,   2.922526E+05,   0.000000E+00
  4.000000E+02,   5.000000E+02,   4.500000E+02,   2.922526E+05,   0.000000E+00
  5.000000E+02,   6.000000E+02,   5.500000E+02,   2.922526E+05,   0.000000E+00
  6.000000E+02,   7.000000E+02,   6.500000E+02,   2.922526E+05,   0.000000E+00
  7.000000E+02,   8.000000E+02,   7.500000E+02,   2.922526E+05,   0.000000E+00
  8.000000E+02,   1.000000E+03,   9.000000E+02,   6.503078E+05,   0.000000E+00
  1.000000E+03,   1.250000E+03,   1.125000E+03,   9.100667E+05,   0.000000E+00
  1.250000E+03,   1.500000E+03,   1.375000E+03,   1.013086E+06,   0.000000E+00
  1.500000E+03,   1.750000E+03,   1.625000E+03,   1.073176E+06,   0.000000E+00
  1.750000E+03,   2.000000E+03,   1.875000E+03,   1.242947E+06,   0.000000E+00
  2.000000E+03,   2.250000E+03,   2.125000E+03,   1.350661E+06,   0.000000E+00
  2.250000E+03,   2.500000E+03,   2.375000E+03,   1.412279E+06,   0.000000E+00
  2.500000E+03,   2.750000E+03,   2.625000E+03,   1.546598E+06,   0.000000E+00
  2.750000E+03,   3.000000E+03,   2.875000E+03,   1.737055E+06,   0.000000E+00
  3.000000E+03,   3.250000E+03,   3.125000E+03,   1.781346E+06,   0.000000E+00
  3.250000E+03,   3.500000E+03,   3.375000E+03,   1.859960E+06,   0.000000E+00
  3.500000E+03,   3.750000E+03,   3.625000E+03,   1.962976E+06,   0.000000E+00
  3.750000E+03,   4.000000E+03,   3.875000E+03,   2.163750E+06,   0.000000E+00
  4.000000E+03,   4.250000E+03,   4.125000E+03,   2.240985E+06,   0.000000E+00
  4.250000E+03,   4.500000E+03,   4.375000E+03,   2.242695E+06,   0.000000E+00
  4.500000E+03,   4.750000E+03,   4.625000E+03,   2.427724E+06,   0.000000E+00
  4.750000E+03,   5.000000E+03,   4.875000E+03,   2.545774E+06,   0.000000E+00
  5.000000E+03,   5.500000E+03,   5.250000E+03,   5.401224E+06,   0.000000E+00
  5.500000E+03,   6.000000E+03,   5.750000E+03,   5.861587E+06,   0.000000E+00
  6.000000E+03,   6.500000E+03,   6.250000E+03,   6.242534E+06,   0.000000E+00
  6.500000E+03,   7.000000E+03,   6.750000E+03,   6.836756E+06,   0.000000E+00
  7.000000E+03,   1.000000E+04,   8.500000E+03,   5.151178E+07,   0.000000E+00
  1.000000E+04,   2.000000E+04,   1.500000E+04,   2.653339E+08,   0.000000E+00
  2.000000E+04,   3.000000E+04,   2.500000E+04,   3.204631E+08,   0.000000E+00
  3.000000E+04,   4.000000E+04,   3.500000E+04,   3.118555E+08,   0.000000E+00
  4.000000E+04,   5.000000E+04,   4.500000E+04,   2.758884E+08,   0.000000E+00
  5.000000E+04,   6.000000E+04,   5.500000E+04,   2.226298E+08,   0.000000E+00
  6.000000E+04,   7.000000E+04,   6.500000E+04,   2.121516E+08,   0.000000E+00
  7.000000E+04,   8.000000E+04,   7.500000E+04,   1.787871E+08,   0.000000E+00
  8.000000E+04,   1.000000E+05,   9.000000E+04,   2.561111E+08,   0.000000E+00
  1.000000E+05,   1.500000E+05,   1.250000E+05,   3.049357E+08,   0.000000E+00
  1.500000E+05,   2.000000E+05,   1.750000E+05,   1.587071E+08,   0.000000E+00
  2.000000E+05,   3.000000E+05,   2.500000E+05,   1.385806E+08,   0.000000E+00
  3.000000E+05,   4.000000E+05,   3.500000E+05,   1.815588E+07,   0.000000E+00
  4.000000E+05,   5.000000E+05,   4.500000E+05,   2.376998E+06,   0.000000E+00
  5.000000E+05,   8.000000E+05,   6.500000E+05,   8.598141E+05,   0.000000E+00
  8.000000E+05,   1.000000E+06,   0.000000E+00,   0.000000E+00,   0.000000E+00
'End of Block'
'*',    13,     3,     4,     0,     5,     5,    46,     1
'OMNIDIRECTIONAL FLUENCE ANALYSIS'
'MULASSIS ml-v01-19'
'geant4-09-02-ref-00 (19-December-2008)'
'FLU_BDY', 1, 2, ' '
'FLU_PAR, -1, e-      '
'FLU_AMN', 1, 0., 'deg'
'FLU_AMX', 1, 90., 'deg'
'Elo','keV', 1, ' Lower edge of energy    bin '
'Eup','keV', 1, ' Upper edge of energy    bin '
'Emean','keV', 1, ' Mean energy of bin '
'Value','particles/cm2/bin',1,             'Fluence/flux'
'Error','particles/cm2/bin',1,'Error in   fluence/flux'
  0.000000E+00,   4.000000E+01,   2.000000E+01,   2.555129E+10,   0.000000E+00
  4.000000E+01,   1.000000E+02,   7.000000E+01,   3.430814E+10,   0.000000E+00
  1.000000E+02,   2.000000E+02,   1.500000E+02,   6.703150E+10,   0.000000E+00
  2.000000E+02,   3.000000E+02,   2.500000E+02,   6.934015E+10,   0.000000E+00
  3.000000E+02,   4.000000E+02,   3.500000E+02,   6.367182E+10,   0.000000E+00
  4.000000E+02,   5.000000E+02,   4.500000E+02,   5.573710E+10,   0.000000E+00
  5.000000E+02,   6.000000E+02,   5.500000E+02,   4.745100E+10,   0.000000E+00
  6.000000E+02,   7.000000E+02,   6.500000E+02,   3.922495E+10,   0.000000E+00
  7.000000E+02,   8.000000E+02,   7.500000E+02,   3.178111E+10,   0.000000E+00
  8.000000E+02,   1.000000E+03,   9.000000E+02,   4.541529E+10,   0.000000E+00
  1.000000E+03,   1.250000E+03,   1.125000E+03,   3.320371E+10,   0.000000E+00
  1.250000E+03,   1.500000E+03,   1.375000E+03,   1.761643E+10,   0.000000E+00
  1.500000E+03,   1.750000E+03,   1.625000E+03,   9.613199E+09,   0.000000E+00
  1.750000E+03,   2.000000E+03,   1.875000E+03,   5.416612E+09,   0.000000E+00
  2.000000E+03,   2.250000E+03,   2.125000E+03,   3.179199E+09,   0.000000E+00
  2.250000E+03,   2.500000E+03,   2.375000E+03,   1.858999E+09,   0.000000E+00
  2.500000E+03,   2.750000E+03,   2.625000E+03,   1.058899E+09,   0.000000E+00
  2.750000E+03,   3.000000E+03,   2.875000E+03,   5.678203E+08,   0.000000E+00
  3.000000E+03,   3.250000E+03,   3.125000E+03,   2.623473E+08,   0.000000E+00
  3.250000E+03,   3.500000E+03,   3.375000E+03,   7.809610E+07,   0.000000E+00
  3.500000E+03,   3.750000E+03,   3.625000E+03,   1.866727E+07,   0.000000E+00
  3.750000E+03,   4.000000E+03,   3.875000E+03,   4.145393E+06,   0.000000E+00
  4.000000E+03,   4.250000E+03,   4.125000E+03,   8.823619E+05,   0.000000E+00
  4.250000E+03,   4.500000E+03,   4.375000E+03,   2.510522E+05,   0.000000E+00
  4.500000E+03,   4.750000E+03,   4.625000E+03,   8.580273E+04,   0.000000E+00
  4.750000E+03,   5.000000E+03,   4.875000E+03,   2.823787E+04,   0.000000E+00
  5.000000E+03,   5.500000E+03,   5.250000E+03,   1.531910E+04,   0.000000E+00
  5.500000E+03,   6.000000E+03,   5.750000E+03,   9.654764E+03,   0.000000E+00
  6.000000E+03,   6.500000E+03,   6.250000E+03,   9.559113E+03,   0.000000E+00
  6.500000E+03,   7.000000E+03,   6.750000E+03,   9.557241E+03,   0.000000E+00
  7.000000E+03,   1.000000E+04,   8.500000E+03,   5.734345E+04,   0.000000E+00
  1.000000E+04,   2.000000E+04,   1.500000E+04,   1.911448E+05,   0.000000E+00
  2.000000E+04,   3.000000E+04,   2.500000E+04,   1.911448E+05,   0.000000E+00
  3.000000E+04,   4.000000E+04,   3.500000E+04,   1.379389E+05,   0.000000E+00
  4.000000E+04,   5.000000E+04,   4.500000E+04,   7.358532E+04,   0.000000E+00
  5.000000E+04,   6.000000E+04,   5.500000E+04,   4.443139E+04,   0.000000E+00
  6.000000E+04,   7.000000E+04,   6.500000E+04,   3.040004E+04,   0.000000E+00
  7.000000E+04,   8.000000E+04,   7.500000E+04,   2.202667E+04,   0.000000E+00
  8.000000E+04,   1.000000E+05,   9.000000E+04,   3.138863E+04,   0.000000E+00
  1.000000E+05,   1.500000E+05,   1.250000E+05,   3.759619E+04,   0.000000E+00
  1.500000E+05,   2.000000E+05,   1.750000E+05,   1.231049E+04,   0.000000E+00
  2.000000E+05,   3.000000E+05,   2.500000E+05,   5.168235E+03,   0.000000E+00
  3.000000E+05,   4.000000E+05,   3.500000E+05,   3.142389E+02,   0.000000E+00
  4.000000E+05,   5.000000E+05,   4.500000E+05,   1.291404E+02,   0.000000E+00
  5.000000E+05,   8.000000E+05,   6.500000E+05,   1.668728E+01,   0.000000E+00
  8.000000E+05,   1.000000E+06,   0.000000E+00,   0.000000E+00,   0.000000E+00
'End of Block'
'*',    13,     3,     4,     0,     5,     5,    46,    -1
'OMNIDIRECTIONAL FLUENCE ANALYSIS'
'MULASSIS ml-v01-19'
'geant4-09-02-ref-00 (19-December-2008)'
'FLU_BDY', 1, 2, ' '
'FLU_PAR, -1, neutron '
'FLU_AMN', 1, 0., 'deg'
'FLU_AMX', 1, 90., 'deg'
'Elo','keV', 1, ' Lower edge of energy    bin '
'Eup','keV', 1, ' Upper edge of energy    bin '
'Emean','keV', 1, ' Mean energy of bin '
'Value','particles/cm2/bin',1,             'Fluence/flux'
'Error','particles/cm2/bin',1,'Error in   fluence/flux'
  0.000000E+00,   4.000000E+01,   2.000000E+01,   2.769894E+05,   0.000000E+00
  4.000000E+01,   1.000000E+02,   7.000000E+01,   4.154841E+05,   0.000000E+00
  1.000000E+02,   2.000000E+02,   1.500000E+02,   6.924735E+05,   0.000000E+00
  2.000000E+02,   3.000000E+02,   2.500000E+02,   6.924735E+05,   0.000000E+00
  3.000000E+02,   4.000000E+02,   3.500000E+02,   6.924735E+05,   0.000000E+00
  4.000000E+02,   5.000000E+02,   4.500000E+02,   6.924735E+05,   0.000000E+00
  5.000000E+02,   6.000000E+02,   5.500000E+02,   6.924735E+05,   0.000000E+00
  6.000000E+02,   7.000000E+02,   6.500000E+02,   6.924735E+05,   0.000000E+00
  7.000000E+02,   8.000000E+02,   7.500000E+02,   6.924735E+05,   0.000000E+00
  8.000000E+02,   1.000000E+03,   9.000000E+02,   1.377117E+06,   0.000000E+00
  1.000000E+03,   1.250000E+03,   1.125000E+03,   1.709832E+06,   0.000000E+00
  1.250000E+03,   1.500000E+03,   1.375000E+03,   1.667669E+06,   0.000000E+00
  1.500000E+03,   1.750000E+03,   1.625000E+03,   1.632716E+06,   0.000000E+00
  1.750000E+03,   2.000000E+03,   1.875000E+03,   1.576045E+06,   0.000000E+00
  2.000000E+03,   2.250000E+03,   2.125000E+03,   1.519329E+06,   0.000000E+00
  2.250000E+03,   2.500000E+03,   2.375000E+03,   1.466573E+06,   0.000000E+00
  2.500000E+03,   2.750000E+03,   2.625000E+03,   1.401796E+06,   0.000000E+00
  2.750000E+03,   3.000000E+03,   2.875000E+03,   1.334126E+06,   0.000000E+00
  3.000000E+03,   3.250000E+03,   3.125000E+03,   1.287891E+06,   0.000000E+00
  3.250000E+03,   3.500000E+03,   3.375000E+03,   1.239830E+06,   0.000000E+00
  3.500000E+03,   3.750000E+03,   3.625000E+03,   1.180105E+06,   0.000000E+00
  3.750000E+03,   4.000000E+03,   3.875000E+03,   1.127901E+06,   0.000000E+00
  4.000000E+03,   4.250000E+03,   4.125000E+03,   1.056779E+06,   0.000000E+00
  4.250000E+03,   4.500000E+03,   4.375000E+03,   1.052266E+06,   0.000000E+00
  4.500000E+03,   4.750000E+03,   4.625000E+03,   9.755506E+05,   0.000000E+00
  4.750000E+03,   5.000000E+03,   4.875000E+03,   9.398475E+05,   0.000000E+00
  5.000000E+03,   5.500000E+03,   5.250000E+03,   1.743966E+06,   0.000000E+00
  5.500000E+03,   6.000000E+03,   5.750000E+03,   1.604310E+06,   0.000000E+00
  6.000000E+03,   6.500000E+03,   6.250000E+03,   1.474352E+06,   0.000000E+00
  6.500000E+03,   7.000000E+03,   6.750000E+03,   1.374815E+06,   0.000000E+00
  7.000000E+03,   1.000000E+04,   8.500000E+03,   6.353832E+06,   0.000000E+00
  1.000000E+04,   2.000000E+04,   1.500000E+04,   1.079644E+07,   0.000000E+00
  2.000000E+04,   3.000000E+04,   2.500000E+04,   5.408037E+06,   0.000000E+00
  3.000000E+04,   4.000000E+04,   3.500000E+04,   3.430268E+06,   0.000000E+00
  4.000000E+04,   5.000000E+04,   4.500000E+04,   2.296767E+06,   0.000000E+00
  5.000000E+04,   6.000000E+04,   5.500000E+04,   1.622409E+06,   0.000000E+00
  6.000000E+04,   7.000000E+04,   6.500000E+04,   1.180078E+06,   0.000000E+00
  7.000000E+04,   8.000000E+04,   7.500000E+04,   8.838012E+05,   0.000000E+00
  8.000000E+04,   1.000000E+05,   9.000000E+04,   1.221993E+06,   0.000000E+00
  1.000000E+05,   1.500000E+05,   1.250000E+05,   1.611601E+06,   0.000000E+00
  1.500000E+05,   2.000000E+05,   1.750000E+05,   6.807294E+05,   0.000000E+00
  2.000000E+05,   3.000000E+05,   2.500000E+05,   3.448456E+05,   0.000000E+00
  3.000000E+05,   4.000000E+05,   3.500000E+05,   9.526680E+03,   0.000000E+00
  4.000000E+05,   5.000000E+05,   4.500000E+05,   4.245721E+03,   0.000000E+00
  5.000000E+05,   8.000000E+05,   6.500000E+05,   2.822582E+02,   0.000000E+00
  8.000000E+05,   1.000000E+06,   0.000000E+00,   0.000000E+00,   0.000000E+00
'End of File'
