Energy
(MeV)	Elec. Stopping Power
(MeV cm2 g-1)	Ionizing Dose*
(MeV g-1)	Ionizing Dose*
(Gy)
1.0000e-05	6.3850e+00	6.3850e+00	1.0232e-09
1.5000e-05	7.8200e+00	7.8200e+00	1.2532e-09
2.0000e-05	9.0300e+00	9.0300e+00	1.4471e-09
2.5000e-05	1.0100e+01	1.0100e+01	1.6186e-09
3.0000e-05	1.1060e+01	1.1060e+01	1.7724e-09
3.5000e-05	1.1950e+01	1.1950e+01	1.9151e-09
4.0000e-05	1.2770e+01	1.2770e+01	2.0465e-09
4.5000e-05	1.3540e+01	1.3540e+01	2.1699e-09
5.0000e-05	1.4280e+01	1.4280e+01	2.2885e-09
5.5000e-05	1.4970e+01	1.4970e+01	2.3990e-09
6.0000e-05	1.5640e+01	1.5640e+01	2.5064e-09
6.5000e-05	1.6280e+01	1.6280e+01	2.6090e-09
7.0000e-05	1.6890e+01	1.6890e+01	2.7067e-09
7.5000e-05	1.7490e+01	1.7490e+01	2.8029e-09
8.0000e-05	1.8060e+01	1.8060e+01	2.8942e-09
8.5000e-05	1.8620e+01	1.8620e+01	2.9840e-09
9.0000e-05	1.9150e+01	1.9150e+01	3.0689e-09
9.5000e-05	1.9680e+01	1.9680e+01	3.1538e-09
1.0000e-04	2.0190e+01	2.0190e+01	3.2356e-09
1.5000e-04	2.4730e+01	2.4730e+01	3.9631e-09
2.0000e-04	2.8550e+01	2.8550e+01	4.5753e-09
2.5000e-04	3.1920e+01	3.1920e+01	5.1154e-09
3.0000e-04	3.4970e+01	3.4970e+01	5.6042e-09
3.5000e-04	3.7770e+01	3.7770e+01	6.0529e-09
4.0000e-04	4.0380e+01	4.0380e+01	6.4712e-09
4.5000e-04	4.2830e+01	4.2830e+01	6.8638e-09
5.0000e-04	4.5150e+01	4.5150e+01	7.2356e-09
5.5000e-04	4.7350e+01	4.7350e+01	7.5881e-09
6.0000e-04	4.9460e+01	4.9460e+01	7.9263e-09
6.5000e-04	5.1480e+01	5.1480e+01	8.2500e-09
7.0000e-04	5.3420e+01	5.3420e+01	8.5609e-09
7.5000e-04	5.5300e+01	5.5300e+01	8.8622e-09
8.0000e-04	5.7110e+01	5.7110e+01	9.1522e-09
8.5000e-04	5.8870e+01	5.8870e+01	9.4343e-09
9.0000e-04	6.0570e+01	6.0570e+01	9.7067e-09
9.5000e-04	6.2230e+01	6.2230e+01	9.9728e-09
1.0000e-03	6.3850e+01	6.3850e+01	1.0232e-08
1.5000e-03	7.8200e+01	7.8200e+01	1.2532e-08
2.0000e-03	9.0300e+01	9.0300e+01	1.4471e-08
2.5000e-03	1.0100e+02	1.0100e+02	1.6186e-08
3.0000e-03	1.1060e+02	1.1060e+02	1.7724e-08
3.5000e-03	1.1950e+02	1.1950e+02	1.9151e-08
4.0000e-03	1.2770e+02	1.2770e+02	2.0465e-08
4.5000e-03	1.3540e+02	1.3540e+02	2.1699e-08
5.0000e-03	1.4280e+02	1.4280e+02	2.2885e-08
5.5000e-03	1.4970e+02	1.4970e+02	2.3990e-08
6.0000e-03	1.5640e+02	1.5640e+02	2.5064e-08
6.5000e-03	1.6280e+02	1.6280e+02	2.6090e-08
7.0000e-03	1.6890e+02	1.6890e+02	2.7067e-08
7.5000e-03	1.7490e+02	1.7490e+02	2.8029e-08
8.0000e-03	1.8060e+02	1.8060e+02	2.8942e-08
8.5000e-03	1.8620e+02	1.8620e+02	2.9840e-08
9.0000e-03	1.9150e+02	1.9150e+02	3.0689e-08
9.5000e-03	1.9680e+02	1.9680e+02	3.1538e-08
1.0000e-02	2.0190e+02	2.0190e+02	3.2356e-08
1.5000e-02	2.4730e+02	2.4730e+02	3.9631e-08
2.0000e-02	2.8550e+02	2.8550e+02	4.5753e-08
2.5000e-02	3.1920e+02	3.1920e+02	5.1154e-08
3.0000e-02	3.4970e+02	3.4970e+02	5.6042e-08
3.5000e-02	3.7920e+02	3.7920e+02	6.0769e-08
4.0000e-02	4.0730e+02	4.0730e+02	6.5272e-08
4.5000e-02	4.3340e+02	4.3340e+02	6.9455e-08
5.0000e-02	4.5820e+02	4.5820e+02	7.3429e-08
5.5000e-02	4.8180e+02	4.8180e+02	7.7212e-08
6.0000e-02	5.0460e+02	5.0460e+02	8.0865e-08
6.5000e-02	5.2670e+02	5.2670e+02	8.4407e-08
7.0000e-02	5.4820e+02	5.4820e+02	8.7853e-08
7.5000e-02	5.6910e+02	5.6910e+02	9.1202e-08
8.0000e-02	5.8960e+02	5.8960e+02	9.4487e-08
8.5000e-02	6.0970e+02	6.0970e+02	9.7708e-08
9.0000e-02	6.2950e+02	6.2950e+02	1.0088e-07
9.5000e-02	6.4890e+02	6.4890e+02	1.0399e-07
1.0000e-01	6.6810e+02	6.6810e+02	1.0707e-07
1.5000e-01	8.4880e+02	8.4880e+02	1.3603e-07
2.0000e-01	1.0180e+03	1.0180e+03	1.6314e-07
2.5000e-01	1.1800e+03	1.1800e+03	1.8910e-07
3.0000e-01	1.3370e+03	1.3370e+03	2.1426e-07
3.5000e-01	1.4900e+03	1.4900e+03	2.3878e-07
4.0000e-01	1.6390e+03	1.6390e+03	2.6266e-07
4.5000e-01	1.7840e+03	1.7840e+03	2.8590e-07
5.0000e-01	1.9250e+03	1.9250e+03	3.0849e-07
5.5000e-01	2.0620e+03	2.0620e+03	3.3045e-07
6.0000e-01	2.1930e+03	2.1930e+03	3.5144e-07
6.5000e-01	2.3200e+03	2.3200e+03	3.7179e-07
7.0000e-01	2.4420e+03	2.4420e+03	3.9135e-07
7.5000e-01	2.5590e+03	2.5590e+03	4.1010e-07
8.0000e-01	2.6720e+03	2.6720e+03	4.2821e-07
8.5000e-01	2.7790e+03	2.7790e+03	4.4535e-07
9.0000e-01	2.8820e+03	2.8820e+03	4.6186e-07
9.5000e-01	2.9800e+03	2.9800e+03	4.7756e-07
1.0000e+00	3.0740e+03	3.0740e+03	4.9263e-07
1.5000e+00	3.8090e+03	3.8090e+03	6.1042e-07
2.0000e+00	4.2840e+03	4.2840e+03	6.8654e-07
2.5000e+00	4.6080e+03	4.6080e+03	7.3846e-07
3.0000e+00	4.8400e+03	4.8400e+03	7.7564e-07
3.5000e+00	5.0100e+03	5.0100e+03	8.0288e-07
4.0000e+00	5.1390e+03	5.1390e+03	8.2356e-07
4.5000e+00	5.2370e+03	5.2370e+03	8.3926e-07
5.0000e+00	5.3130e+03	5.3130e+03	8.5144e-07
5.5000e+00	5.3710e+03	5.3710e+03	8.6074e-07
6.0000e+00	5.4150e+03	5.4150e+03	8.6779e-07
6.5000e+00	5.4480e+03	5.4480e+03	8.7308e-07
7.0000e+00	5.4720e+03	5.4720e+03	8.7692e-07
7.5000e+00	5.4880e+03	5.4880e+03	8.7949e-07
8.0000e+00	5.4980e+03	5.4980e+03	8.8109e-07
8.5000e+00	5.5030e+03	5.5030e+03	8.8189e-07
9.0000e+00	5.5030e+03	5.5030e+03	8.8189e-07
9.5000e+00	5.4990e+03	5.4990e+03	8.8125e-07
1.0000e+01	5.4920e+03	5.4920e+03	8.8013e-07
1.5000e+01	5.3090e+03	5.3090e+03	8.5080e-07
2.0000e+01	5.0450e+03	5.0450e+03	8.0849e-07
2.5000e+01	4.7680e+03	4.7680e+03	7.6410e-07
3.0000e+01	4.5010e+03	4.5010e+03	7.2131e-07
3.5000e+01	4.2790e+03	4.2790e+03	6.8574e-07
4.0000e+01	4.0480e+03	4.0480e+03	6.4872e-07
4.5000e+01	3.8540e+03	3.8540e+03	6.1763e-07
5.0000e+01	3.6750e+03	3.6750e+03	5.8894e-07
5.5000e+01	3.5110e+03	3.5110e+03	5.6266e-07
6.0000e+01	3.3590e+03	3.3590e+03	5.3830e-07
6.5000e+01	3.2200e+03	3.2200e+03	5.1603e-07
7.0000e+01	3.0910e+03	3.0910e+03	4.9535e-07
7.5000e+01	2.9720e+03	2.9720e+03	4.7628e-07
8.0000e+01	2.8610e+03	2.8610e+03	4.5849e-07
8.5000e+01	2.7590e+03	2.7590e+03	4.4215e-07
9.0000e+01	2.6640e+03	2.6640e+03	4.2692e-07
9.5000e+01	2.5750e+03	2.5750e+03	4.1266e-07
1.0000e+02	2.4930e+03	2.4930e+03	3.9952e-07
1.5000e+02	1.9000e+03	1.9000e+03	3.0449e-07
2.0000e+02	1.5550e+03	1.5550e+03	2.4920e-07
2.5000e+02	1.3300e+03	1.3300e+03	2.1314e-07
3.0000e+02	1.1700e+03	1.1700e+03	1.8750e-07
3.5000e+02	1.0480e+03	1.0480e+03	1.6795e-07
4.0000e+02	9.4830e+02	9.4830e+02	1.5197e-07
4.5000e+02	8.6300e+02	8.6300e+02	1.3830e-07
5.0000e+02	7.9120e+02	7.9120e+02	1.2679e-07
5.5000e+02	7.3520e+02	7.3520e+02	1.1782e-07
6.0000e+02	6.8750e+02	6.8750e+02	1.1018e-07
6.5000e+02	6.4647e+02	6.4647e+02	1.0360e-07
7.0000e+02	6.1095e+02	6.1095e+02	9.7909e-08
7.5000e+02	5.7958e+02	5.7958e+02	9.2882e-08
8.0000e+02	5.5186e+02	5.5186e+02	8.8438e-08
8.5000e+02	5.2701e+02	5.2701e+02	8.4457e-08
9.0000e+02	5.0472e+02	5.0472e+02	8.0885e-08
9.5000e+02	4.8453e+02	4.8453e+02	7.7649e-08
1.0000e+03	4.6615e+02	4.6615e+02	7.4703e-08
1.5000e+03	3.4553e+02	3.4553e+02	5.5373e-08
2.0000e+03	2.8180e+02	2.8180e+02	4.5160e-08
2.5000e+03	2.4195e+02	2.4195e+02	3.8774e-08
3.0000e+03	2.1479e+02	2.1479e+02	3.4421e-08
3.5000e+03	1.9509e+02	1.9509e+02	3.1264e-08
4.0000e+03	1.8016e+02	1.8016e+02	2.8872e-08
4.5000e+03	1.6848e+02	1.6848e+02	2.7000e-08
5.0000e+03	1.5910e+02	1.5910e+02	2.5497e-08
5.5000e+03	1.5141e+02	1.5141e+02	2.4265e-08
6.0000e+03	1.4501e+02	1.4501e+02	2.3239e-08
6.5000e+03	1.3961e+02	1.3961e+02	2.2373e-08
7.0000e+03	1.3498e+02	1.3498e+02	2.1631e-08
7.5000e+03	1.3098e+02	1.3098e+02	2.0990e-08
8.0000e+03	1.2750e+02	1.2750e+02	2.0433e-08
8.5000e+03	1.2446e+02	1.2446e+02	1.9945e-08
9.0000e+03	1.2178e+02	1.2178e+02	1.9515e-08
9.5000e+03	1.1940e+02	1.1940e+02	1.9134e-08
1.0000e+04	1.1728e+02	1.1728e+02	1.8794e-08
1.5000e+04	1.0470e+02	1.0470e+02	1.6779e-08
2.0000e+04	9.9468e+01	9.9468e+01	1.5940e-08
2.5000e+04	9.7053e+01	9.7053e+01	1.5553e-08
3.0000e+04	9.5955e+01	9.5955e+01	1.5377e-08
3.5000e+04	9.5547e+01	9.5547e+01	1.5312e-08
4.0000e+04	9.5525e+01	9.5525e+01	1.5309e-08
4.5000e+04	9.5729e+01	9.5729e+01	1.5341e-08
5.0000e+04	9.6068e+01	9.6068e+01	1.5396e-08
5.5000e+04	9.6488e+01	9.6488e+01	1.5463e-08
6.0000e+04	9.6955e+01	9.6955e+01	1.5538e-08
6.5000e+04	9.7449e+01	9.7449e+01	1.5617e-08
7.0000e+04	9.7955e+01	9.7955e+01	1.5698e-08
7.5000e+04	9.8465e+01	9.8465e+01	1.5780e-08
8.0000e+04	9.8973e+01	9.8973e+01	1.5861e-08
8.5000e+04	9.9474e+01	9.9474e+01	1.5941e-08
9.0000e+04	9.9968e+01	9.9968e+01	1.6020e-08
9.5000e+04	1.0045e+02	1.0045e+02	1.6098e-08
1.0000e+05	1.0092e+02	1.0092e+02	1.6173e-08
1.5000e+05	1.0501e+02	1.0501e+02	1.6829e-08
2.0000e+05	1.0816e+02	1.0816e+02	1.7334e-08
2.5000e+05	1.1068e+02	1.1068e+02	1.7737e-08
3.0000e+05	1.1275e+02	1.1275e+02	1.8069e-08
3.5000e+05	1.1451e+02	1.1451e+02	1.8351e-08
4.0000e+05	1.1603e+02	1.1603e+02	1.8594e-08
4.5000e+05	1.1736e+02	1.1736e+02	1.8808e-08
5.0000e+05	1.1855e+02	1.1855e+02	1.8999e-08
5.5000e+05	1.1962e+02	1.1962e+02	1.9171e-08
6.0000e+05	1.2060e+02	1.2060e+02	1.9326e-08
6.5000e+05	1.2149e+02	1.2149e+02	1.9469e-08
7.0000e+05	1.2231e+02	1.2231e+02	1.9601e-08
7.5000e+05	1.2307e+02	1.2307e+02	1.9723e-08
8.0000e+05	1.2378e+02	1.2378e+02	1.9836e-08
8.5000e+05	1.2444e+02	1.2444e+02	1.9943e-08
9.0000e+05	1.2506e+02	1.2506e+02	2.0042e-08
9.5000e+05	1.2565e+02	1.2565e+02	2.0136e-08
1.0000e+06	1.2620e+02	1.2620e+02	2.0225e-08
1.5000e+06	1.3051e+02	1.3051e+02	2.0915e-08
2.0000e+06	1.3348e+02	1.3348e+02	2.1392e-08
2.5000e+06	1.3575e+02	1.3575e+02	2.1754e-08
3.0000e+06	1.3757e+02	1.3757e+02	2.2046e-08
3.5000e+06	1.3909e+02	1.3909e+02	2.2290e-08
4.0000e+06	1.4039e+02	1.4039e+02	2.2499e-08
4.5000e+06	1.4153e+02	1.4153e+02	2.2681e-08
5.0000e+06	1.4254e+02	1.4254e+02	2.2844e-08
5.5000e+06	1.4346e+02	1.4346e+02	2.2990e-08
6.0000e+06	1.4428e+02	1.4428e+02	2.3122e-08
6.5000e+06	1.4504e+02	1.4504e+02	2.3243e-08
7.0000e+06	1.4574e+02	1.4574e+02	2.3355e-08
7.5000e+06	1.4638e+02	1.4638e+02	2.3459e-08
8.0000e+06	1.4699e+02	1.4699e+02	2.3555e-08
8.5000e+06	1.4755e+02	1.4755e+02	2.3646e-08
9.0000e+06	1.4808e+02	1.4808e+02	2.3731e-08
9.5000e+06	1.4858e+02	1.4858e+02	2.3811e-08
1.0000e+07	1.4906e+02	1.4906e+02	2.3887e-08