Energy
(MeV)	Elec. Stopping Power
(MeV cm2 g-1)	Ionizing Dose*
(MeV g-1)	Ionizing Dose*
(Gy)
1.0000e-05	5.0060e+00	5.0060e+00	8.0224e-10
1.5000e-05	6.1310e+00	6.1310e+00	9.8253e-10
2.0000e-05	7.0800e+00	7.0800e+00	1.1346e-09
2.5000e-05	7.9150e+00	7.9150e+00	1.2684e-09
3.0000e-05	8.6710e+00	8.6710e+00	1.3896e-09
3.5000e-05	9.3650e+00	9.3650e+00	1.5008e-09
4.0000e-05	1.0010e+01	1.0010e+01	1.6042e-09
4.5000e-05	1.0620e+01	1.0620e+01	1.7019e-09
5.0000e-05	1.1190e+01	1.1190e+01	1.7933e-09
5.5000e-05	1.1740e+01	1.1740e+01	1.8814e-09
6.0000e-05	1.2260e+01	1.2260e+01	1.9647e-09
6.5000e-05	1.2760e+01	1.2760e+01	2.0449e-09
7.0000e-05	1.3240e+01	1.3240e+01	2.1218e-09
7.5000e-05	1.3710e+01	1.3710e+01	2.1971e-09
8.0000e-05	1.4160e+01	1.4160e+01	2.2692e-09
8.5000e-05	1.4590e+01	1.4590e+01	2.3381e-09
9.0000e-05	1.5020e+01	1.5020e+01	2.4071e-09
9.5000e-05	1.5430e+01	1.5430e+01	2.4728e-09
1.0000e-04	1.5830e+01	1.5830e+01	2.5369e-09
1.5000e-04	1.9390e+01	1.9390e+01	3.1074e-09
2.0000e-04	2.2390e+01	2.2390e+01	3.5881e-09
2.5000e-04	2.5030e+01	2.5030e+01	4.0112e-09
3.0000e-04	2.7420e+01	2.7420e+01	4.3942e-09
3.5000e-04	2.9620e+01	2.9620e+01	4.7468e-09
4.0000e-04	3.1660e+01	3.1660e+01	5.0737e-09
4.5000e-04	3.3580e+01	3.3580e+01	5.3814e-09
5.0000e-04	3.5400e+01	3.5400e+01	5.6731e-09
5.5000e-04	3.7130e+01	3.7130e+01	5.9503e-09
6.0000e-04	3.8780e+01	3.8780e+01	6.2147e-09
6.5000e-04	4.0360e+01	4.0360e+01	6.4679e-09
7.0000e-04	4.1880e+01	4.1880e+01	6.7115e-09
7.5000e-04	4.3350e+01	4.3350e+01	6.9471e-09
8.0000e-04	4.4780e+01	4.4780e+01	7.1763e-09
8.5000e-04	4.6150e+01	4.6150e+01	7.3958e-09
9.0000e-04	4.7490e+01	4.7490e+01	7.6106e-09
9.5000e-04	4.8790e+01	4.8790e+01	7.8189e-09
1.0000e-03	5.0060e+01	5.0060e+01	8.0224e-09
1.5000e-03	6.1310e+01	6.1310e+01	9.8253e-09
2.0000e-03	7.0800e+01	7.0800e+01	1.1346e-08
2.5000e-03	7.9150e+01	7.9150e+01	1.2684e-08
3.0000e-03	8.6710e+01	8.6710e+01	1.3896e-08
3.5000e-03	9.3650e+01	9.3650e+01	1.5008e-08
4.0000e-03	1.0010e+02	1.0010e+02	1.6042e-08
4.5000e-03	1.0620e+02	1.0620e+02	1.7019e-08
5.0000e-03	1.1190e+02	1.1190e+02	1.7933e-08
5.5000e-03	1.1740e+02	1.1740e+02	1.8814e-08
6.0000e-03	1.2260e+02	1.2260e+02	1.9647e-08
6.5000e-03	1.2760e+02	1.2760e+02	2.0449e-08
7.0000e-03	1.3240e+02	1.3240e+02	2.1218e-08
7.5000e-03	1.3710e+02	1.3710e+02	2.1971e-08
8.0000e-03	1.4160e+02	1.4160e+02	2.2692e-08
8.5000e-03	1.4590e+02	1.4590e+02	2.3381e-08
9.0000e-03	1.5020e+02	1.5020e+02	2.4071e-08
9.5000e-03	1.5430e+02	1.5430e+02	2.4728e-08
1.0000e-02	1.5830e+02	1.5830e+02	2.5369e-08
1.5000e-02	1.9390e+02	1.9390e+02	3.1074e-08
2.0000e-02	2.2390e+02	2.2390e+02	3.5881e-08
2.5000e-02	2.5030e+02	2.5030e+02	4.0112e-08
3.0000e-02	2.7420e+02	2.7420e+02	4.3942e-08
3.5000e-02	2.9610e+02	2.9610e+02	4.7452e-08
4.0000e-02	3.1620e+02	3.1620e+02	5.0673e-08
4.5000e-02	3.3480e+02	3.3480e+02	5.3654e-08
5.0000e-02	3.5230e+02	3.5230e+02	5.6458e-08
5.5000e-02	3.6870e+02	3.6870e+02	5.9087e-08
6.0000e-02	3.8440e+02	3.8440e+02	6.1603e-08
6.5000e-02	3.9940e+02	3.9940e+02	6.4006e-08
7.0000e-02	4.1380e+02	4.1380e+02	6.6314e-08
7.5000e-02	4.2760e+02	4.2760e+02	6.8526e-08
8.0000e-02	4.4110e+02	4.4110e+02	7.0689e-08
8.5000e-02	4.5420e+02	4.5420e+02	7.2788e-08
9.0000e-02	4.6700e+02	4.6700e+02	7.4840e-08
9.5000e-02	4.7940e+02	4.7940e+02	7.6827e-08
1.0000e-01	4.9160e+02	4.9160e+02	7.8782e-08
1.5000e-01	6.0340e+02	6.0340e+02	9.6699e-08
2.0000e-01	7.0460e+02	7.0460e+02	1.1292e-07
2.5000e-01	8.0040e+02	8.0040e+02	1.2827e-07
3.0000e-01	8.9260e+02	8.9260e+02	1.4304e-07
3.5000e-01	9.8220e+02	9.8220e+02	1.5740e-07
4.0000e-01	1.0700e+03	1.0700e+03	1.7147e-07
4.5000e-01	1.1550e+03	1.1550e+03	1.8510e-07
5.0000e-01	1.2380e+03	1.2380e+03	1.9840e-07
5.5000e-01	1.3180e+03	1.3180e+03	2.1122e-07
6.0000e-01	1.3970e+03	1.3970e+03	2.2388e-07
6.5000e-01	1.4730e+03	1.4730e+03	2.3606e-07
7.0000e-01	1.5470e+03	1.5470e+03	2.4792e-07
7.5000e-01	1.6190e+03	1.6190e+03	2.5946e-07
8.0000e-01	1.6880e+03	1.6880e+03	2.7051e-07
8.5000e-01	1.7560e+03	1.7560e+03	2.8141e-07
9.0000e-01	1.8210e+03	1.8210e+03	2.9183e-07
9.5000e-01	1.8840e+03	1.8840e+03	3.0192e-07
1.0000e+00	1.9450e+03	1.9450e+03	3.1170e-07
1.5000e+00	2.4570e+03	2.4570e+03	3.9375e-07
2.0000e+00	2.8380e+03	2.8380e+03	4.5481e-07
2.5000e+00	3.1300e+03	3.1300e+03	5.0160e-07
3.0000e+00	3.3600e+03	3.3600e+03	5.3846e-07
3.5000e+00	3.5430e+03	3.5430e+03	5.6779e-07
4.0000e+00	3.6910e+03	3.6910e+03	5.9151e-07
4.5000e+00	3.8120e+03	3.8120e+03	6.1090e-07
5.0000e+00	3.9110e+03	3.9110e+03	6.2676e-07
5.5000e+00	3.9930e+03	3.9930e+03	6.3990e-07
6.0000e+00	4.0600e+03	4.0600e+03	6.5064e-07
6.5000e+00	4.1150e+03	4.1150e+03	6.5946e-07
7.0000e+00	4.1600e+03	4.1600e+03	6.6667e-07
7.5000e+00	4.1970e+03	4.1970e+03	6.7260e-07
8.0000e+00	4.2270e+03	4.2270e+03	6.7740e-07
8.5000e+00	4.2510e+03	4.2510e+03	6.8125e-07
9.0000e+00	4.2700e+03	4.2700e+03	6.8429e-07
9.5000e+00	4.2840e+03	4.2840e+03	6.8654e-07
1.0000e+01	4.2950e+03	4.2950e+03	6.8830e-07
1.5000e+01	4.2660e+03	4.2660e+03	6.8365e-07
2.0000e+01	4.1270e+03	4.1270e+03	6.6138e-07
2.5000e+01	3.9540e+03	3.9540e+03	6.3365e-07
3.0000e+01	3.7750e+03	3.7750e+03	6.0497e-07
3.5000e+01	3.6120e+03	3.6120e+03	5.7885e-07
4.0000e+01	3.4340e+03	3.4340e+03	5.5032e-07
4.5000e+01	3.2810e+03	3.2810e+03	5.2580e-07
5.0000e+01	3.1380e+03	3.1380e+03	5.0288e-07
5.5000e+01	3.0060e+03	3.0060e+03	4.8173e-07
6.0000e+01	2.8840e+03	2.8840e+03	4.6218e-07
6.5000e+01	2.7700e+03	2.7700e+03	4.4391e-07
7.0000e+01	2.6640e+03	2.6640e+03	4.2692e-07
7.5000e+01	2.5650e+03	2.5650e+03	4.1106e-07
8.0000e+01	2.4740e+03	2.4740e+03	3.9647e-07
8.5000e+01	2.3890e+03	2.3890e+03	3.8285e-07
9.0000e+01	2.3090e+03	2.3090e+03	3.7003e-07
9.5000e+01	2.2350e+03	2.2350e+03	3.5817e-07
1.0000e+02	2.1650e+03	2.1650e+03	3.4696e-07
1.5000e+02	1.6610e+03	1.6610e+03	2.6619e-07
2.0000e+02	1.3660e+03	1.3660e+03	2.1891e-07
2.5000e+02	1.1730e+03	1.1730e+03	1.8798e-07
3.0000e+02	1.0360e+03	1.0360e+03	1.6603e-07
3.5000e+02	9.3180e+02	9.3180e+02	1.4933e-07
4.0000e+02	8.4610e+02	8.4610e+02	1.3559e-07
4.5000e+02	7.7210e+02	7.7210e+02	1.2373e-07
5.0000e+02	7.0900e+02	7.0900e+02	1.1362e-07
5.5000e+02	6.5950e+02	6.5950e+02	1.0569e-07
6.0000e+02	6.1720e+02	6.1720e+02	9.8910e-08
6.5000e+02	5.8088e+02	5.8088e+02	9.3089e-08
7.0000e+02	5.4940e+02	5.4940e+02	8.8045e-08
7.5000e+02	5.2164e+02	5.2164e+02	8.3596e-08
8.0000e+02	4.9694e+02	4.9694e+02	7.9638e-08
8.5000e+02	4.7481e+02	4.7481e+02	7.6091e-08
9.0000e+02	4.5494e+02	4.5494e+02	7.2907e-08
9.5000e+02	4.3695e+02	4.3695e+02	7.0023e-08
1.0000e+03	4.2061e+02	4.2061e+02	6.7406e-08
1.5000e+03	3.1266e+02	3.1266e+02	5.0106e-08
2.0000e+03	2.5543e+02	2.5543e+02	4.0934e-08
2.5000e+03	2.1955e+02	2.1955e+02	3.5185e-08
3.0000e+03	1.9507e+02	1.9507e+02	3.1262e-08
3.5000e+03	1.7731e+02	1.7731e+02	2.8415e-08
4.0000e+03	1.6385e+02	1.6385e+02	2.6258e-08
4.5000e+03	1.5331e+02	1.5331e+02	2.4568e-08
5.0000e+03	1.4484e+02	1.4484e+02	2.3211e-08
5.5000e+03	1.3790e+02	1.3790e+02	2.2100e-08
6.0000e+03	1.3213e+02	1.3213e+02	2.1175e-08
6.5000e+03	1.2726e+02	1.2726e+02	2.0394e-08
7.0000e+03	1.2308e+02	1.2308e+02	1.9725e-08
7.5000e+03	1.1948e+02	1.1948e+02	1.9148e-08
8.0000e+03	1.1636e+02	1.1636e+02	1.8647e-08
8.5000e+03	1.1362e+02	1.1362e+02	1.8208e-08
9.0000e+03	1.1121e+02	1.1121e+02	1.7822e-08
9.5000e+03	1.0907e+02	1.0907e+02	1.7479e-08
1.0000e+04	1.0717e+02	1.0717e+02	1.7174e-08
1.5000e+04	9.5901e+01	9.5901e+01	1.5369e-08
2.0000e+04	9.1307e+01	9.1307e+01	1.4632e-08
2.5000e+04	8.9230e+01	8.9230e+01	1.4300e-08
3.0000e+04	8.8327e+01	8.8327e+01	1.4155e-08
3.5000e+04	8.8036e+01	8.8036e+01	1.4108e-08
4.0000e+04	8.8087e+01	8.8087e+01	1.4116e-08
4.5000e+04	8.8334e+01	8.8334e+01	1.4156e-08
5.0000e+04	8.8698e+01	8.8698e+01	1.4214e-08
5.5000e+04	8.9130e+01	8.9130e+01	1.4284e-08
6.0000e+04	8.9601e+01	8.9601e+01	1.4359e-08
6.5000e+04	9.0092e+01	9.0092e+01	1.4438e-08
7.0000e+04	9.0592e+01	9.0592e+01	1.4518e-08
7.5000e+04	9.1093e+01	9.1093e+01	1.4598e-08
8.0000e+04	9.1589e+01	9.1589e+01	1.4678e-08
8.5000e+04	9.2077e+01	9.2077e+01	1.4756e-08
9.0000e+04	9.2556e+01	9.2556e+01	1.4833e-08
9.5000e+04	9.3024e+01	9.3024e+01	1.4908e-08
1.0000e+05	9.3480e+01	9.3480e+01	1.4981e-08
1.5000e+05	9.7412e+01	9.7412e+01	1.5611e-08
2.0000e+05	1.0043e+02	1.0043e+02	1.6094e-08
2.5000e+05	1.0282e+02	1.0282e+02	1.6478e-08
3.0000e+05	1.0480e+02	1.0480e+02	1.6794e-08
3.5000e+05	1.0647e+02	1.0647e+02	1.7062e-08
4.0000e+05	1.0791e+02	1.0791e+02	1.7294e-08
4.5000e+05	1.0918e+02	1.0918e+02	1.7498e-08
5.0000e+05	1.1032e+02	1.1032e+02	1.7679e-08
5.5000e+05	1.1133e+02	1.1133e+02	1.7842e-08
6.0000e+05	1.1226e+02	1.1226e+02	1.7990e-08
6.5000e+05	1.1311e+02	1.1311e+02	1.8126e-08
7.0000e+05	1.1389e+02	1.1389e+02	1.8251e-08
7.5000e+05	1.1461e+02	1.1461e+02	1.8367e-08
8.0000e+05	1.1528e+02	1.1528e+02	1.8475e-08
8.5000e+05	1.1592e+02	1.1592e+02	1.8576e-08
9.0000e+05	1.1651e+02	1.1651e+02	1.8671e-08
9.5000e+05	1.1706e+02	1.1706e+02	1.8760e-08
1.0000e+06	1.1759e+02	1.1759e+02	1.8845e-08
1.5000e+06	1.2169e+02	1.2169e+02	1.9501e-08
2.0000e+06	1.2452e+02	1.2452e+02	1.9955e-08
2.5000e+06	1.2668e+02	1.2668e+02	2.0301e-08
3.0000e+06	1.2841e+02	1.2841e+02	2.0579e-08
3.5000e+06	1.2987e+02	1.2987e+02	2.0812e-08
4.0000e+06	1.3111e+02	1.3111e+02	2.1011e-08
4.5000e+06	1.3220e+02	1.3220e+02	2.1186e-08
5.0000e+06	1.3316e+02	1.3316e+02	2.1340e-08
5.5000e+06	1.3403e+02	1.3403e+02	2.1480e-08
6.0000e+06	1.3482e+02	1.3482e+02	2.1606e-08
6.5000e+06	1.3554e+02	1.3554e+02	2.1721e-08
7.0000e+06	1.3621e+02	1.3621e+02	2.1828e-08
7.5000e+06	1.3682e+02	1.3682e+02	2.1927e-08
8.0000e+06	1.3740e+02	1.3740e+02	2.2019e-08
8.5000e+06	1.3793e+02	1.3793e+02	2.2105e-08
9.0000e+06	1.3844e+02	1.3844e+02	2.2185e-08
9.5000e+06	1.3891e+02	1.3891e+02	2.2262e-08
1.0000e+07	1.3936e+02	1.3936e+02	2.2334e-08