'*',    13,     3,     4,     0,     5,     5,    46,     2
'OMNIDIRECTIONAL FLUENCE ANALYSIS'
'MULASSIS ml-v01-19'
'geant4-09-02-ref-00 (19-December-2008)'
'FLU_BDY', 1, 2, ' '
'FLU_PAR, -1, proton  '
'FLU_AMN', 1, 0., 'deg'
'FLU_AMX', 1, 90., 'deg'
'Elo','keV', 1, ' Lower edge of energy    bin '
'Eup','keV', 1, ' Upper edge of energy    bin '
'Emean','keV', 1, ' Mean energy of bin '
'Value','particles/cm2/bin',1,             'Fluence/flux'
'Error','particles/cm2/bin',1,'Error in   fluence/flux'
  0.000000E+00,   4.000000E+01,   2.000000E+01,   5.419992E+04,   0.000000E+00
  4.000000E+01,   1.000000E+02,   7.000000E+01,   8.129989E+04,   0.000000E+00
  1.000000E+02,   2.000000E+02,   1.500000E+02,   1.354998E+05,   0.000000E+00
  2.000000E+02,   3.000000E+02,   2.500000E+02,   1.354998E+05,   0.000000E+00
  3.000000E+02,   4.000000E+02,   3.500000E+02,   1.354998E+05,   0.000000E+00
  4.000000E+02,   5.000000E+02,   4.500000E+02,   1.354998E+05,   0.000000E+00
  5.000000E+02,   6.000000E+02,   5.500000E+02,   1.354998E+05,   0.000000E+00
  6.000000E+02,   7.000000E+02,   6.500000E+02,   1.354998E+05,   0.000000E+00
  7.000000E+02,   8.000000E+02,   7.500000E+02,   1.354998E+05,   0.000000E+00
  8.000000E+02,   1.000000E+03,   9.000000E+02,   2.709996E+05,   0.000000E+00
  1.000000E+03,   1.250000E+03,   1.125000E+03,   3.387495E+05,   0.000000E+00
  1.250000E+03,   1.500000E+03,   1.375000E+03,   3.813435E+05,   0.000000E+00
  1.500000E+03,   1.750000E+03,   1.625000E+03,   4.524939E+05,   0.000000E+00
  1.750000E+03,   2.000000E+03,   1.875000E+03,   4.775159E+05,   0.000000E+00
  2.000000E+03,   2.250000E+03,   2.125000E+03,   5.334905E+05,   0.000000E+00
  2.250000E+03,   2.500000E+03,   2.375000E+03,   5.494341E+05,   0.000000E+00
  2.500000E+03,   2.750000E+03,   2.625000E+03,   5.842669E+05,   0.000000E+00
  2.750000E+03,   3.000000E+03,   2.875000E+03,   6.705549E+05,   0.000000E+00
  3.000000E+03,   3.250000E+03,   3.125000E+03,   7.217637E+05,   0.000000E+00
  3.250000E+03,   3.500000E+03,   3.375000E+03,   7.273382E+05,   0.000000E+00
  3.500000E+03,   3.750000E+03,   3.625000E+03,   7.509455E+05,   0.000000E+00
  3.750000E+03,   4.000000E+03,   3.875000E+03,   7.955371E+05,   0.000000E+00
  4.000000E+03,   4.250000E+03,   4.125000E+03,   8.574373E+05,   0.000000E+00
  4.250000E+03,   4.500000E+03,   4.375000E+03,   9.415096E+05,   0.000000E+00
  4.500000E+03,   4.750000E+03,   4.625000E+03,   9.515307E+05,   0.000000E+00
  4.750000E+03,   5.000000E+03,   4.875000E+03,   9.868762E+05,   0.000000E+00
  5.000000E+03,   5.500000E+03,   5.250000E+03,   2.019638E+06,   0.000000E+00
  5.500000E+03,   6.000000E+03,   5.750000E+03,   2.268994E+06,   0.000000E+00
  6.000000E+03,   6.500000E+03,   6.250000E+03,   2.453174E+06,   0.000000E+00
  6.500000E+03,   7.000000E+03,   6.750000E+03,   2.468733E+06,   0.000000E+00
  7.000000E+03,   1.000000E+04,   8.500000E+03,   1.889780E+07,   0.000000E+00
  1.000000E+04,   2.000000E+04,   1.500000E+04,   1.196087E+08,   0.000000E+00
  2.000000E+04,   3.000000E+04,   2.500000E+04,   1.409702E+08,   0.000000E+00
  3.000000E+04,   4.000000E+04,   3.500000E+04,   1.296876E+08,   0.000000E+00
  4.000000E+04,   5.000000E+04,   4.500000E+04,   1.251424E+08,   0.000000E+00
  5.000000E+04,   6.000000E+04,   5.500000E+04,   1.152455E+08,   0.000000E+00
  6.000000E+04,   7.000000E+04,   6.500000E+04,   9.919362E+07,   0.000000E+00
  7.000000E+04,   8.000000E+04,   7.500000E+04,   7.948470E+07,   0.000000E+00
  8.000000E+04,   1.000000E+05,   9.000000E+04,   1.052719E+08,   0.000000E+00
  1.000000E+05,   1.500000E+05,   1.250000E+05,   1.367183E+08,   0.000000E+00
  1.500000E+05,   2.000000E+05,   1.750000E+05,   5.850564E+07,   0.000000E+00
  2.000000E+05,   3.000000E+05,   2.500000E+05,   4.832508E+07,   0.000000E+00
  3.000000E+05,   4.000000E+05,   0.000000E+00,  -2.164518E+06,   0.000000E+00
  4.000000E+05,   5.000000E+05,   4.500000E+05,   2.419225E+06,   0.000000E+00
  5.000000E+05,   8.000000E+05,   6.500000E+05,   7.870145E+05,   0.000000E+00
  8.000000E+05,   1.000000E+06,   0.000000E+00,   0.000000E+00,   0.000000E+00
'End of Block'
'*',    13,     3,     4,     0,     5,     5,    46,     1
'OMNIDIRECTIONAL FLUENCE ANALYSIS'
'MULASSIS ml-v01-19'
'geant4-09-02-ref-00 (19-December-2008)'
'FLU_BDY', 1, 2, ' '
'FLU_PAR, -1, e-      '
'FLU_AMN', 1, 0., 'deg'
'FLU_AMX', 1, 90., 'deg'
'Elo','keV', 1, ' Lower edge of energy    bin '
'Eup','keV', 1, ' Upper edge of energy    bin '
'Emean','keV', 1, ' Mean energy of bin '
'Value','particles/cm2/bin',1,             'Fluence/flux'
'Error','particles/cm2/bin',1,'Error in   fluence/flux'
  0.000000E+00,   4.000000E+01,   2.000000E+01,   1.573622E+08,   0.000000E+00
  4.000000E+01,   1.000000E+02,   7.000000E+01,   1.124102E+08,   0.000000E+00
  1.000000E+02,   2.000000E+02,   1.500000E+02,   1.363329E+08,   0.000000E+00
  2.000000E+02,   3.000000E+02,   2.500000E+02,   1.424562E+08,   0.000000E+00
  3.000000E+02,   4.000000E+02,   3.500000E+02,   1.382020E+08,   0.000000E+00
  4.000000E+02,   5.000000E+02,   4.500000E+02,   1.336471E+08,   0.000000E+00
  5.000000E+02,   6.000000E+02,   5.500000E+02,   1.231978E+08,   0.000000E+00
  6.000000E+02,   7.000000E+02,   6.500000E+02,   1.123879E+08,   0.000000E+00
  7.000000E+02,   8.000000E+02,   7.500000E+02,   1.001909E+08,   0.000000E+00
  8.000000E+02,   1.000000E+03,   9.000000E+02,   1.614297E+08,   0.000000E+00
  1.000000E+03,   1.250000E+03,   1.125000E+03,   1.353558E+08,   0.000000E+00
  1.250000E+03,   1.500000E+03,   1.375000E+03,   8.184898E+07,   0.000000E+00
  1.500000E+03,   1.750000E+03,   1.625000E+03,   4.501135E+07,   0.000000E+00
  1.750000E+03,   2.000000E+03,   1.875000E+03,   2.326739E+07,   0.000000E+00
  2.000000E+03,   2.250000E+03,   2.125000E+03,   1.163982E+07,   0.000000E+00
  2.250000E+03,   2.500000E+03,   2.375000E+03,   5.319907E+06,   0.000000E+00
  2.500000E+03,   2.750000E+03,   2.625000E+03,   2.450232E+06,   0.000000E+00
  2.750000E+03,   3.000000E+03,   2.875000E+03,   1.102217E+06,   0.000000E+00
  3.000000E+03,   3.250000E+03,   3.125000E+03,   5.059979E+05,   0.000000E+00
  3.250000E+03,   3.500000E+03,   3.375000E+03,   2.395799E+05,   0.000000E+00
  3.500000E+03,   3.750000E+03,   3.625000E+03,   1.087299E+05,   0.000000E+00
  3.750000E+03,   4.000000E+03,   3.875000E+03,   4.989991E+04,   0.000000E+00
  4.000000E+03,   4.250000E+03,   4.125000E+03,   2.610249E+04,   0.000000E+00
  4.250000E+03,   4.500000E+03,   4.375000E+03,   1.620447E+04,   0.000000E+00
  4.500000E+03,   4.750000E+03,   4.625000E+03,   9.734656E+03,   0.000000E+00
  4.750000E+03,   5.000000E+03,   4.875000E+03,   5.929347E+03,   0.000000E+00
  5.000000E+03,   5.500000E+03,   5.250000E+03,   7.001960E+03,   0.000000E+00
  5.500000E+03,   6.000000E+03,   5.750000E+03,   5.064229E+03,   0.000000E+00
  6.000000E+03,   6.500000E+03,   6.250000E+03,   4.709706E+03,   0.000000E+00
  6.500000E+03,   7.000000E+03,   6.750000E+03,   4.662981E+03,   0.000000E+00
  7.000000E+03,   1.000000E+04,   8.500000E+03,   2.797215E+04,   0.000000E+00
  1.000000E+04,   2.000000E+04,   1.500000E+04,   9.324102E+04,   0.000000E+00
  2.000000E+04,   3.000000E+04,   2.500000E+04,   9.324102E+04,   0.000000E+00
  3.000000E+04,   4.000000E+04,   3.500000E+04,   9.324102E+04,   0.000000E+00
  4.000000E+04,   5.000000E+04,   4.500000E+04,   8.583873E+04,   0.000000E+00
  5.000000E+04,   6.000000E+04,   5.500000E+04,   5.080900E+04,   0.000000E+00
  6.000000E+04,   7.000000E+04,   6.500000E+04,   3.265621E+04,   0.000000E+00
  7.000000E+04,   8.000000E+04,   7.500000E+04,   2.279357E+04,   0.000000E+00
  8.000000E+04,   1.000000E+05,   9.000000E+04,   3.217268E+04,   0.000000E+00
  1.000000E+05,   1.500000E+05,   1.250000E+05,   4.010838E+04,   0.000000E+00
  1.500000E+05,   2.000000E+05,   1.750000E+05,   1.244322E+04,   0.000000E+00
  2.000000E+05,   3.000000E+05,   2.500000E+05,   4.424874E+03,   0.000000E+00
  3.000000E+05,   4.000000E+05,   0.000000E+00,  -4.471341E+02,   0.000000E+00
  4.000000E+05,   5.000000E+05,   4.500000E+05,   3.056317E+02,   0.000000E+00
  5.000000E+05,   8.000000E+05,   6.500000E+05,   3.989030E+01,   0.000000E+00
  8.000000E+05,   1.000000E+06,   0.000000E+00,   0.000000E+00,   0.000000E+00
'End of Block'
'*',    13,     3,     4,     0,     5,     5,    46,    -1
'OMNIDIRECTIONAL FLUENCE ANALYSIS'
'MULASSIS ml-v01-19'
'geant4-09-02-ref-00 (19-December-2008)'
'FLU_BDY', 1, 2, ' '
'FLU_PAR, -1, neutron '
'FLU_AMN', 1, 0., 'deg'
'FLU_AMX', 1, 90., 'deg'
'Elo','keV', 1, ' Lower edge of energy    bin '
'Eup','keV', 1, ' Upper edge of energy    bin '
'Emean','keV', 1, ' Mean energy of bin '
'Value','particles/cm2/bin',1,             'Fluence/flux'
'Error','particles/cm2/bin',1,'Error in   fluence/flux'
  0.000000E+00,   4.000000E+01,   2.000000E+01,   2.299207E+05,   0.000000E+00
  4.000000E+01,   1.000000E+02,   7.000000E+01,   3.448810E+05,   0.000000E+00
  1.000000E+02,   2.000000E+02,   1.500000E+02,   5.748017E+05,   0.000000E+00
  2.000000E+02,   3.000000E+02,   2.500000E+02,   5.748017E+05,   0.000000E+00
  3.000000E+02,   4.000000E+02,   3.500000E+02,   5.748017E+05,   0.000000E+00
  4.000000E+02,   5.000000E+02,   4.500000E+02,   5.748017E+05,   0.000000E+00
  5.000000E+02,   6.000000E+02,   5.500000E+02,   5.748017E+05,   0.000000E+00
  6.000000E+02,   7.000000E+02,   6.500000E+02,   5.748017E+05,   0.000000E+00
  7.000000E+02,   8.000000E+02,   7.500000E+02,   5.748017E+05,   0.000000E+00
  8.000000E+02,   1.000000E+03,   9.000000E+02,   1.149603E+06,   0.000000E+00
  1.000000E+03,   1.250000E+03,   1.125000E+03,   1.437004E+06,   0.000000E+00
  1.250000E+03,   1.500000E+03,   1.375000E+03,   1.411095E+06,   0.000000E+00
  1.500000E+03,   1.750000E+03,   1.625000E+03,   1.367816E+06,   0.000000E+00
  1.750000E+03,   2.000000E+03,   1.875000E+03,   1.347048E+06,   0.000000E+00
  2.000000E+03,   2.250000E+03,   2.125000E+03,   1.300591E+06,   0.000000E+00
  2.250000E+03,   2.500000E+03,   2.375000E+03,   1.278828E+06,   0.000000E+00
  2.500000E+03,   2.750000E+03,   2.625000E+03,   1.231283E+06,   0.000000E+00
  2.750000E+03,   3.000000E+03,   2.875000E+03,   1.164006E+06,   0.000000E+00
  3.000000E+03,   3.250000E+03,   3.125000E+03,   1.099621E+06,   0.000000E+00
  3.250000E+03,   3.500000E+03,   3.375000E+03,   1.086527E+06,   0.000000E+00
  3.500000E+03,   3.750000E+03,   3.625000E+03,   1.031077E+06,   0.000000E+00
  3.750000E+03,   4.000000E+03,   3.875000E+03,   1.001351E+06,   0.000000E+00
  4.000000E+03,   4.250000E+03,   4.125000E+03,   9.142083E+05,   0.000000E+00
  4.250000E+03,   4.500000E+03,   4.375000E+03,   8.747204E+05,   0.000000E+00
  4.500000E+03,   4.750000E+03,   4.625000E+03,   8.406194E+05,   0.000000E+00
  4.750000E+03,   5.000000E+03,   4.875000E+03,   7.951109E+05,   0.000000E+00
  5.000000E+03,   5.500000E+03,   5.250000E+03,   1.513591E+06,   0.000000E+00
  5.500000E+03,   6.000000E+03,   5.750000E+03,   1.377830E+06,   0.000000E+00
  6.000000E+03,   6.500000E+03,   6.250000E+03,   1.229218E+06,   0.000000E+00
  6.500000E+03,   7.000000E+03,   6.750000E+03,   1.185278E+06,   0.000000E+00
  7.000000E+03,   1.000000E+04,   8.500000E+03,   5.481710E+06,   0.000000E+00
  1.000000E+04,   2.000000E+04,   1.500000E+04,   9.631353E+06,   0.000000E+00
  2.000000E+04,   3.000000E+04,   2.500000E+04,   4.991194E+06,   0.000000E+00
  3.000000E+04,   4.000000E+04,   3.500000E+04,   3.146145E+06,   0.000000E+00
  4.000000E+04,   5.000000E+04,   4.500000E+04,   2.075468E+06,   0.000000E+00
  5.000000E+04,   6.000000E+04,   5.500000E+04,   1.414539E+06,   0.000000E+00
  6.000000E+04,   7.000000E+04,   6.500000E+04,   9.712311E+05,   0.000000E+00
  7.000000E+04,   8.000000E+04,   7.500000E+04,   7.003044E+05,   0.000000E+00
  8.000000E+04,   1.000000E+05,   9.000000E+04,   9.319437E+05,   0.000000E+00
  1.000000E+05,   1.500000E+05,   1.250000E+05,   1.120416E+06,   0.000000E+00
  1.500000E+05,   2.000000E+05,   1.750000E+05,   4.084028E+05,   0.000000E+00
  2.000000E+05,   3.000000E+05,   2.500000E+05,   1.721667E+05,   0.000000E+00
  3.000000E+05,   4.000000E+05,   0.000000E+00,  -1.660308E+04,   0.000000E+00
  4.000000E+05,   5.000000E+05,   4.500000E+05,   6.725235E+03,   0.000000E+00
  5.000000E+05,   8.000000E+05,   6.500000E+05,   3.722268E+02,   0.000000E+00
  8.000000E+05,   1.000000E+06,   0.000000E+00,   0.000000E+00,   0.000000E+00
'End of File'
