'*',    13,     3,     4,     0,     5,     5,    46,     2
'OMNIDIRECTIONAL FLUENCE ANALYSIS'
'MULASSIS ml-v01-19'
'geant4-09-02-ref-00 (19-December-2008)'
'FLU_BDY', 1, 2, ' '
'FLU_PAR, -1, proton  '
'FLU_AMN', 1, 0., 'deg'
'FLU_AMX', 1, 90., 'deg'
'Elo','keV', 1, ' Lower edge of energy    bin '
'Eup','keV', 1, ' Upper edge of energy    bin '
'Emean','keV', 1, ' Mean energy of bin '
'Value','particles/cm2/bin',1,             'Fluence/flux'
'Error','particles/cm2/bin',1,'Error in   fluence/flux'
  0.000000E+00,   4.000000E+01,   2.000000E+01,   1.490764E+05,   0.000000E+00
  4.000000E+01,   1.000000E+02,   7.000000E+01,   2.236147E+05,   0.000000E+00
  1.000000E+02,   2.000000E+02,   1.500000E+02,   3.726911E+05,   0.000000E+00
  2.000000E+02,   3.000000E+02,   2.500000E+02,   3.726911E+05,   0.000000E+00
  3.000000E+02,   4.000000E+02,   3.500000E+02,   3.726911E+05,   0.000000E+00
  4.000000E+02,   5.000000E+02,   4.500000E+02,   3.726911E+05,   0.000000E+00
  5.000000E+02,   6.000000E+02,   5.500000E+02,   3.726911E+05,   0.000000E+00
  6.000000E+02,   7.000000E+02,   6.500000E+02,   3.726911E+05,   0.000000E+00
  7.000000E+02,   8.000000E+02,   7.500000E+02,   3.726911E+05,   0.000000E+00
  8.000000E+02,   1.000000E+03,   9.000000E+02,   7.453822E+05,   0.000000E+00
  1.000000E+03,   1.250000E+03,   1.125000E+03,   9.317278E+05,   0.000000E+00
  1.250000E+03,   1.500000E+03,   1.375000E+03,   9.959989E+05,   0.000000E+00
  1.500000E+03,   1.750000E+03,   1.625000E+03,   1.103360E+06,   0.000000E+00
  1.750000E+03,   2.000000E+03,   1.875000E+03,   1.152696E+06,   0.000000E+00
  2.000000E+03,   2.250000E+03,   2.125000E+03,   1.263063E+06,   0.000000E+00
  2.250000E+03,   2.500000E+03,   2.375000E+03,   1.298074E+06,   0.000000E+00
  2.500000E+03,   2.750000E+03,   2.625000E+03,   1.374564E+06,   0.000000E+00
  2.750000E+03,   3.000000E+03,   2.875000E+03,   1.517801E+06,   0.000000E+00
  3.000000E+03,   3.250000E+03,   3.125000E+03,   1.626513E+06,   0.000000E+00
  3.250000E+03,   3.500000E+03,   3.375000E+03,   1.644684E+06,   0.000000E+00
  3.500000E+03,   3.750000E+03,   3.625000E+03,   1.721634E+06,   0.000000E+00
  3.750000E+03,   4.000000E+03,   3.875000E+03,   1.809557E+06,   0.000000E+00
  4.000000E+03,   4.250000E+03,   4.125000E+03,   1.967704E+06,   0.000000E+00
  4.250000E+03,   4.500000E+03,   4.375000E+03,   2.096163E+06,   0.000000E+00
  4.500000E+03,   4.750000E+03,   4.625000E+03,   2.137806E+06,   0.000000E+00
  4.750000E+03,   5.000000E+03,   4.875000E+03,   2.228502E+06,   0.000000E+00
  5.000000E+03,   5.500000E+03,   5.250000E+03,   4.585802E+06,   0.000000E+00
  5.500000E+03,   6.000000E+03,   5.750000E+03,   5.059108E+06,   0.000000E+00
  6.000000E+03,   6.500000E+03,   6.250000E+03,   5.494448E+06,   0.000000E+00
  6.500000E+03,   7.000000E+03,   6.750000E+03,   5.567534E+06,   0.000000E+00
  7.000000E+03,   1.000000E+04,   8.500000E+03,   4.187123E+07,   0.000000E+00
  1.000000E+04,   2.000000E+04,   1.500000E+04,   2.535836E+08,   0.000000E+00
  2.000000E+04,   3.000000E+04,   2.500000E+04,   3.458663E+08,   0.000000E+00
  3.000000E+04,   4.000000E+04,   3.500000E+04,   3.815699E+08,   0.000000E+00
  4.000000E+04,   5.000000E+04,   4.500000E+04,   4.374290E+08,   0.000000E+00
  5.000000E+04,   6.000000E+04,   5.500000E+04,   4.627844E+08,   0.000000E+00
  6.000000E+04,   7.000000E+04,   6.500000E+04,   4.486842E+08,   0.000000E+00
  7.000000E+04,   8.000000E+04,   7.500000E+04,   4.075386E+08,   0.000000E+00
  8.000000E+04,   1.000000E+05,   9.000000E+04,   7.116535E+08,   0.000000E+00
  1.000000E+05,   1.500000E+05,   1.250000E+05,   1.184205E+09,   0.000000E+00
  1.500000E+05,   2.000000E+05,   1.750000E+05,   6.916426E+08,   0.000000E+00
  2.000000E+05,   3.000000E+05,   2.500000E+05,   6.901641E+08,   0.000000E+00
  3.000000E+05,   4.000000E+05,   3.500000E+05,   1.726670E+08,   0.000000E+00
  4.000000E+05,   5.000000E+05,   4.500000E+05,   2.419225E+06,   0.000000E+00
  5.000000E+05,   8.000000E+05,   6.500000E+05,   7.870145E+05,   0.000000E+00
  8.000000E+05,   1.000000E+06,   0.000000E+00,   0.000000E+00,   0.000000E+00
'End of Block'
'*',    13,     3,     4,     0,     5,     5,    46,     1
'OMNIDIRECTIONAL FLUENCE ANALYSIS'
'MULASSIS ml-v01-19'
'geant4-09-02-ref-00 (19-December-2008)'
'FLU_BDY', 1, 2, ' '
'FLU_PAR, -1, e-      '
'FLU_AMN', 1, 0., 'deg'
'FLU_AMX', 1, 90., 'deg'
'Elo','keV', 1, ' Lower edge of energy    bin '
'Eup','keV', 1, ' Upper edge of energy    bin '
'Emean','keV', 1, ' Mean energy of bin '
'Value','particles/cm2/bin',1,             'Fluence/flux'
'Error','particles/cm2/bin',1,'Error in   fluence/flux'
  0.000000E+00,   4.000000E+01,   2.000000E+01,   2.836889E+08,   0.000000E+00
  4.000000E+01,   1.000000E+02,   7.000000E+01,   1.599866E+08,   0.000000E+00
  1.000000E+02,   2.000000E+02,   1.500000E+02,   9.873092E+07,   0.000000E+00
  2.000000E+02,   3.000000E+02,   2.500000E+02,   4.210306E+07,   0.000000E+00
  3.000000E+02,   4.000000E+02,   3.500000E+02,   2.375421E+07,   0.000000E+00
  4.000000E+02,   5.000000E+02,   4.500000E+02,   1.677642E+07,   0.000000E+00
  5.000000E+02,   6.000000E+02,   5.500000E+02,   1.330509E+07,   0.000000E+00
  6.000000E+02,   7.000000E+02,   6.500000E+02,   1.130905E+07,   0.000000E+00
  7.000000E+02,   8.000000E+02,   7.500000E+02,   9.785920E+06,   0.000000E+00
  8.000000E+02,   1.000000E+03,   9.000000E+02,   1.553380E+07,   0.000000E+00
  1.000000E+03,   1.250000E+03,   1.125000E+03,   1.305658E+07,   0.000000E+00
  1.250000E+03,   1.500000E+03,   1.375000E+03,   7.940176E+06,   0.000000E+00
  1.500000E+03,   1.750000E+03,   1.625000E+03,   4.460246E+06,   0.000000E+00
  1.750000E+03,   2.000000E+03,   1.875000E+03,   2.395637E+06,   0.000000E+00
  2.000000E+03,   2.250000E+03,   2.125000E+03,   1.197266E+06,   0.000000E+00
  2.250000E+03,   2.500000E+03,   2.375000E+03,   5.313330E+05,   0.000000E+00
  2.500000E+03,   2.750000E+03,   2.625000E+03,   2.290260E+05,   0.000000E+00
  2.750000E+03,   3.000000E+03,   2.875000E+03,   8.863389E+04,   0.000000E+00
  3.000000E+03,   3.250000E+03,   3.125000E+03,   3.313663E+04,   0.000000E+00
  3.250000E+03,   3.500000E+03,   3.375000E+03,   1.831282E+04,   0.000000E+00
  3.500000E+03,   3.750000E+03,   3.625000E+03,   1.473624E+04,   0.000000E+00
  3.750000E+03,   4.000000E+03,   3.875000E+03,   1.204363E+04,   0.000000E+00
  4.000000E+03,   4.250000E+03,   4.125000E+03,   1.017325E+04,   0.000000E+00
  4.250000E+03,   4.500000E+03,   4.375000E+03,   8.988657E+03,   0.000000E+00
  4.500000E+03,   4.750000E+03,   4.625000E+03,   8.316990E+03,   0.000000E+00
  4.750000E+03,   5.000000E+03,   4.875000E+03,   7.952181E+03,   0.000000E+00
  5.000000E+03,   5.500000E+03,   5.250000E+03,   1.540126E+04,   0.000000E+00
  5.500000E+03,   6.000000E+03,   5.750000E+03,   1.520091E+04,   0.000000E+00
  6.000000E+03,   6.500000E+03,   6.250000E+03,   1.516793E+04,   0.000000E+00
  6.500000E+03,   7.000000E+03,   6.750000E+03,   1.516793E+04,   0.000000E+00
  7.000000E+03,   1.000000E+04,   8.500000E+03,   9.100758E+04,   0.000000E+00
  1.000000E+04,   2.000000E+04,   1.500000E+04,   3.033586E+05,   0.000000E+00
  2.000000E+04,   3.000000E+04,   2.500000E+04,   3.033586E+05,   0.000000E+00
  3.000000E+04,   4.000000E+04,   3.500000E+04,   3.033586E+05,   0.000000E+00
  4.000000E+04,   5.000000E+04,   4.500000E+04,   2.921891E+05,   0.000000E+00
  5.000000E+04,   6.000000E+04,   5.500000E+04,   2.311656E+05,   0.000000E+00
  6.000000E+04,   7.000000E+04,   6.500000E+04,   1.893148E+05,   0.000000E+00
  7.000000E+04,   8.000000E+04,   7.500000E+04,   1.583024E+05,   0.000000E+00
  8.000000E+04,   1.000000E+05,   9.000000E+04,   2.631173E+05,   0.000000E+00
  1.000000E+05,   1.500000E+05,   1.250000E+05,   4.068293E+05,   0.000000E+00
  1.500000E+05,   2.000000E+05,   1.750000E+05,   1.674718E+05,   0.000000E+00
  2.000000E+05,   3.000000E+05,   2.500000E+05,   8.625102E+04,   0.000000E+00
  3.000000E+05,   4.000000E+05,   3.500000E+05,   1.341299E+04,   0.000000E+00
  4.000000E+05,   5.000000E+05,   4.500000E+05,   3.056317E+02,   0.000000E+00
  5.000000E+05,   8.000000E+05,   6.500000E+05,   3.989030E+01,   0.000000E+00
  8.000000E+05,   1.000000E+06,   0.000000E+00,   0.000000E+00,   0.000000E+00
'End of Block'
'*',    13,     3,     4,     0,     5,     5,    46,    -1
'OMNIDIRECTIONAL FLUENCE ANALYSIS'
'MULASSIS ml-v01-19'
'geant4-09-02-ref-00 (19-December-2008)'
'FLU_BDY', 1, 2, ' '
'FLU_PAR, -1, neutron '
'FLU_AMN', 1, 0., 'deg'
'FLU_AMX', 1, 90., 'deg'
'Elo','keV', 1, ' Lower edge of energy    bin '
'Eup','keV', 1, ' Upper edge of energy    bin '
'Emean','keV', 1, ' Mean energy of bin '
'Value','particles/cm2/bin',1,             'Fluence/flux'
'Error','particles/cm2/bin',1,'Error in   fluence/flux'
  0.000000E+00,   4.000000E+01,   2.000000E+01,   8.715070E+05,   0.000000E+00
  4.000000E+01,   1.000000E+02,   7.000000E+01,   1.307261E+06,   0.000000E+00
  1.000000E+02,   2.000000E+02,   1.500000E+02,   2.178768E+06,   0.000000E+00
  2.000000E+02,   3.000000E+02,   2.500000E+02,   2.178768E+06,   0.000000E+00
  3.000000E+02,   4.000000E+02,   3.500000E+02,   2.178768E+06,   0.000000E+00
  4.000000E+02,   5.000000E+02,   4.500000E+02,   2.178768E+06,   0.000000E+00
  5.000000E+02,   6.000000E+02,   5.500000E+02,   2.178768E+06,   0.000000E+00
  6.000000E+02,   7.000000E+02,   6.500000E+02,   2.178768E+06,   0.000000E+00
  7.000000E+02,   8.000000E+02,   7.500000E+02,   2.178768E+06,   0.000000E+00
  8.000000E+02,   1.000000E+03,   9.000000E+02,   4.357535E+06,   0.000000E+00
  1.000000E+03,   1.250000E+03,   1.125000E+03,   5.446919E+06,   0.000000E+00
  1.250000E+03,   1.500000E+03,   1.375000E+03,   5.407824E+06,   0.000000E+00
  1.500000E+03,   1.750000E+03,   1.625000E+03,   5.342519E+06,   0.000000E+00
  1.750000E+03,   2.000000E+03,   1.875000E+03,   5.301571E+06,   0.000000E+00
  2.000000E+03,   2.250000E+03,   2.125000E+03,   5.209969E+06,   0.000000E+00
  2.250000E+03,   2.500000E+03,   2.375000E+03,   5.162180E+06,   0.000000E+00
  2.500000E+03,   2.750000E+03,   2.625000E+03,   5.057774E+06,   0.000000E+00
  2.750000E+03,   3.000000E+03,   2.875000E+03,   4.931789E+06,   0.000000E+00
  3.000000E+03,   3.250000E+03,   3.125000E+03,   4.775611E+06,   0.000000E+00
  3.250000E+03,   3.500000E+03,   3.375000E+03,   4.732931E+06,   0.000000E+00
  3.500000E+03,   3.750000E+03,   3.625000E+03,   4.552186E+06,   0.000000E+00
  3.750000E+03,   4.000000E+03,   3.875000E+03,   4.493573E+06,   0.000000E+00
  4.000000E+03,   4.250000E+03,   4.125000E+03,   4.207466E+06,   0.000000E+00
  4.250000E+03,   4.500000E+03,   4.375000E+03,   4.143384E+06,   0.000000E+00
  4.500000E+03,   4.750000E+03,   4.625000E+03,   4.001678E+06,   0.000000E+00
  4.750000E+03,   5.000000E+03,   4.875000E+03,   3.857233E+06,   0.000000E+00
  5.000000E+03,   5.500000E+03,   5.250000E+03,   7.429448E+06,   0.000000E+00
  5.500000E+03,   6.000000E+03,   5.750000E+03,   6.997001E+06,   0.000000E+00
  6.000000E+03,   6.500000E+03,   6.250000E+03,   6.368369E+06,   0.000000E+00
  6.500000E+03,   7.000000E+03,   6.750000E+03,   6.085300E+06,   0.000000E+00
  7.000000E+03,   1.000000E+04,   8.500000E+03,   2.965313E+07,   0.000000E+00
  1.000000E+04,   2.000000E+04,   1.500000E+04,   5.337494E+07,   0.000000E+00
  2.000000E+04,   3.000000E+04,   2.500000E+04,   2.779193E+07,   0.000000E+00
  3.000000E+04,   4.000000E+04,   3.500000E+04,   1.894629E+07,   0.000000E+00
  4.000000E+04,   5.000000E+04,   4.500000E+04,   1.388733E+07,   0.000000E+00
  5.000000E+04,   6.000000E+04,   5.500000E+04,   1.060049E+07,   0.000000E+00
  6.000000E+04,   7.000000E+04,   6.500000E+04,   8.201702E+06,   0.000000E+00
  7.000000E+04,   8.000000E+04,   7.500000E+04,   6.542042E+06,   0.000000E+00
  8.000000E+04,   1.000000E+05,   9.000000E+04,   9.717324E+06,   0.000000E+00
  1.000000E+05,   1.500000E+05,   1.250000E+05,   1.373579E+07,   0.000000E+00
  1.500000E+05,   2.000000E+05,   1.750000E+05,   6.196243E+06,   0.000000E+00
  2.000000E+05,   3.000000E+05,   2.500000E+05,   3.430952E+06,   0.000000E+00
  3.000000E+05,   4.000000E+05,   3.500000E+05,   3.457509E+05,   0.000000E+00
  4.000000E+05,   5.000000E+05,   4.500000E+05,   6.725235E+03,   0.000000E+00
  5.000000E+05,   8.000000E+05,   6.500000E+05,   3.722268E+02,   0.000000E+00
  8.000000E+05,   1.000000E+06,   0.000000E+00,   0.000000E+00,   0.000000E+00
'End of File'
