'*',    13,     3,     4,     0,     5,     5,    46,     2
'OMNIDIRECTIONAL FLUENCE ANALYSIS'
'MULASSIS ml-v01-19'
'geant4-09-02-ref-00 (19-December-2008)'
'FLU_BDY', 1, 2, ' '
'FLU_PAR, -1, proton  '
'FLU_AMN', 1, 0., 'deg'
'FLU_AMX', 1, 90., 'deg'
'Elo','keV', 1, ' Lower edge of energy    bin '
'Eup','keV', 1, ' Upper edge of energy    bin '
'Emean','keV', 1, ' Mean energy of bin '
'Value','particles/cm2/bin',1,             'Fluence/flux'
'Error','particles/cm2/bin',1,'Error in   fluence/flux'
  0.000000E+00,   4.000000E+01,   2.000000E+01,   3.361627E+05,   0.000000E+00
  4.000000E+01,   1.000000E+02,   7.000000E+01,   5.042440E+05,   0.000000E+00
  1.000000E+02,   2.000000E+02,   1.500000E+02,   8.404066E+05,   0.000000E+00
  2.000000E+02,   3.000000E+02,   2.500000E+02,   8.404066E+05,   0.000000E+00
  3.000000E+02,   4.000000E+02,   3.500000E+02,   8.404066E+05,   0.000000E+00
  4.000000E+02,   5.000000E+02,   4.500000E+02,   8.404066E+05,   0.000000E+00
  5.000000E+02,   6.000000E+02,   5.500000E+02,   8.404066E+05,   0.000000E+00
  6.000000E+02,   7.000000E+02,   6.500000E+02,   8.404066E+05,   0.000000E+00
  7.000000E+02,   8.000000E+02,   7.500000E+02,   8.404066E+05,   0.000000E+00
  8.000000E+02,   1.000000E+03,   9.000000E+02,   1.680813E+06,   0.000000E+00
  1.000000E+03,   1.250000E+03,   1.125000E+03,   2.101017E+06,   0.000000E+00
  1.250000E+03,   1.500000E+03,   1.375000E+03,   2.219974E+06,   0.000000E+00
  1.500000E+03,   1.750000E+03,   1.625000E+03,   2.418686E+06,   0.000000E+00
  1.750000E+03,   2.000000E+03,   1.875000E+03,   2.515892E+06,   0.000000E+00
  2.000000E+03,   2.250000E+03,   2.125000E+03,   2.733345E+06,   0.000000E+00
  2.250000E+03,   2.500000E+03,   2.375000E+03,   2.804900E+06,   0.000000E+00
  2.500000E+03,   2.750000E+03,   2.625000E+03,   2.961230E+06,   0.000000E+00
  2.750000E+03,   3.000000E+03,   2.875000E+03,   3.236272E+06,   0.000000E+00
  3.000000E+03,   3.250000E+03,   3.125000E+03,   3.461435E+06,   0.000000E+00
  3.250000E+03,   3.500000E+03,   3.375000E+03,   3.503055E+06,   0.000000E+00
  3.500000E+03,   3.750000E+03,   3.625000E+03,   3.679311E+06,   0.000000E+00
  3.750000E+03,   4.000000E+03,   3.875000E+03,   3.852542E+06,   0.000000E+00
  4.000000E+03,   4.250000E+03,   4.125000E+03,   4.196238E+06,   0.000000E+00
  4.250000E+03,   4.500000E+03,   4.375000E+03,   4.435369E+06,   0.000000E+00
  4.500000E+03,   4.750000E+03,   4.625000E+03,   4.535887E+06,   0.000000E+00
  4.750000E+03,   5.000000E+03,   4.875000E+03,   4.731516E+06,   0.000000E+00
  5.000000E+03,   5.500000E+03,   5.250000E+03,   9.748771E+06,   0.000000E+00
  5.500000E+03,   6.000000E+03,   5.750000E+03,   1.069820E+07,   0.000000E+00
  6.000000E+03,   6.500000E+03,   6.250000E+03,   1.162759E+07,   0.000000E+00
  6.500000E+03,   7.000000E+03,   6.750000E+03,   1.180848E+07,   0.000000E+00
  7.000000E+03,   1.000000E+04,   8.500000E+03,   8.830048E+07,   0.000000E+00
  1.000000E+04,   2.000000E+04,   1.500000E+04,   5.272051E+08,   0.000000E+00
  2.000000E+04,   3.000000E+04,   2.500000E+04,   7.420059E+08,   0.000000E+00
  3.000000E+04,   4.000000E+04,   3.500000E+04,   8.568535E+08,   0.000000E+00
  4.000000E+04,   5.000000E+04,   4.500000E+04,   1.021928E+09,   0.000000E+00
  5.000000E+04,   6.000000E+04,   5.500000E+04,   1.111371E+09,   0.000000E+00
  6.000000E+04,   7.000000E+04,   6.500000E+04,   1.101952E+09,   0.000000E+00
  7.000000E+04,   8.000000E+04,   7.500000E+04,   1.022668E+09,   0.000000E+00
  8.000000E+04,   1.000000E+05,   9.000000E+04,   1.851971E+09,   0.000000E+00
  1.000000E+05,   1.500000E+05,   1.250000E+05,   3.217963E+09,   0.000000E+00
  1.500000E+05,   2.000000E+05,   1.750000E+05,   1.977079E+09,   0.000000E+00
  2.000000E+05,   3.000000E+05,   2.500000E+05,   2.060698E+09,   0.000000E+00
  3.000000E+05,   4.000000E+05,   3.500000E+05,   6.056830E+08,   0.000000E+00
  4.000000E+05,   5.000000E+05,   4.500000E+05,   2.419225E+06,   0.000000E+00
  5.000000E+05,   8.000000E+05,   6.500000E+05,   7.870145E+05,   0.000000E+00
  8.000000E+05,   1.000000E+06,   0.000000E+00,   0.000000E+00,   0.000000E+00
'End of Block'
'*',    13,     3,     4,     0,     5,     5,    46,     1
'OMNIDIRECTIONAL FLUENCE ANALYSIS'
'MULASSIS ml-v01-19'
'geant4-09-02-ref-00 (19-December-2008)'
'FLU_BDY', 1, 2, ' '
'FLU_PAR, -1, e-      '
'FLU_AMN', 1, 0., 'deg'
'FLU_AMX', 1, 90., 'deg'
'Elo','keV', 1, ' Lower edge of energy    bin '
'Eup','keV', 1, ' Upper edge of energy    bin '
'Emean','keV', 1, ' Mean energy of bin '
'Value','particles/cm2/bin',1,             'Fluence/flux'
'Error','particles/cm2/bin',1,'Error in   fluence/flux'
  0.000000E+00,   4.000000E+01,   2.000000E+01,   7.132729E+08,   0.000000E+00
  4.000000E+01,   1.000000E+02,   7.000000E+01,   4.311928E+08,   0.000000E+00
  1.000000E+02,   2.000000E+02,   1.500000E+02,   2.655857E+08,   0.000000E+00
  2.000000E+02,   3.000000E+02,   2.500000E+02,   1.059340E+08,   0.000000E+00
  3.000000E+02,   4.000000E+02,   3.500000E+02,   5.305310E+07,   0.000000E+00
  4.000000E+02,   5.000000E+02,   4.500000E+02,   3.281715E+07,   0.000000E+00
  5.000000E+02,   6.000000E+02,   5.500000E+02,   2.349960E+07,   0.000000E+00
  6.000000E+02,   7.000000E+02,   6.500000E+02,   1.872631E+07,   0.000000E+00
  7.000000E+02,   8.000000E+02,   7.500000E+02,   1.563333E+07,   0.000000E+00
  8.000000E+02,   1.000000E+03,   9.000000E+02,   2.415384E+07,   0.000000E+00
  1.000000E+03,   1.250000E+03,   1.125000E+03,   2.002852E+07,   0.000000E+00
  1.250000E+03,   1.500000E+03,   1.375000E+03,   1.209456E+07,   0.000000E+00
  1.500000E+03,   1.750000E+03,   1.625000E+03,   6.721933E+06,   0.000000E+00
  1.750000E+03,   2.000000E+03,   1.875000E+03,   3.546844E+06,   0.000000E+00
  2.000000E+03,   2.250000E+03,   2.125000E+03,   1.768002E+06,   0.000000E+00
  2.250000E+03,   2.500000E+03,   2.375000E+03,   8.033740E+05,   0.000000E+00
  2.500000E+03,   2.750000E+03,   2.625000E+03,   3.524753E+05,   0.000000E+00
  2.750000E+03,   3.000000E+03,   2.875000E+03,   1.410420E+05,   0.000000E+00
  3.000000E+03,   3.250000E+03,   3.125000E+03,   5.702652E+04,   0.000000E+00
  3.250000E+03,   3.500000E+03,   3.375000E+03,   3.448551E+04,   0.000000E+00
  3.500000E+03,   3.750000E+03,   3.625000E+03,   2.891191E+04,   0.000000E+00
  3.750000E+03,   4.000000E+03,   3.875000E+03,   2.473489E+04,   0.000000E+00
  4.000000E+03,   4.250000E+03,   4.125000E+03,   2.185678E+04,   0.000000E+00
  4.250000E+03,   4.500000E+03,   4.375000E+03,   2.004860E+04,   0.000000E+00
  4.500000E+03,   4.750000E+03,   4.625000E+03,   1.902341E+04,   0.000000E+00
  4.750000E+03,   5.000000E+03,   4.875000E+03,   1.846960E+04,   0.000000E+00
  5.000000E+03,   5.500000E+03,   5.250000E+03,   3.620760E+04,   0.000000E+00
  5.500000E+03,   6.000000E+03,   5.750000E+03,   3.591509E+04,   0.000000E+00
  6.000000E+03,   6.500000E+03,   6.250000E+03,   3.586518E+04,   0.000000E+00
  6.500000E+03,   7.000000E+03,   6.750000E+03,   3.586518E+04,   0.000000E+00
  7.000000E+03,   1.000000E+04,   8.500000E+03,   2.151911E+05,   0.000000E+00
  1.000000E+04,   2.000000E+04,   1.500000E+04,   7.173036E+05,   0.000000E+00
  2.000000E+04,   3.000000E+04,   2.500000E+04,   7.173036E+05,   0.000000E+00
  3.000000E+04,   4.000000E+04,   3.500000E+04,   7.173036E+05,   0.000000E+00
  4.000000E+04,   5.000000E+04,   4.500000E+04,   6.966302E+05,   0.000000E+00
  5.000000E+04,   6.000000E+04,   5.500000E+04,   5.793170E+05,   0.000000E+00
  6.000000E+04,   7.000000E+04,   6.500000E+04,   4.921853E+05,   0.000000E+00
  7.000000E+04,   8.000000E+04,   7.500000E+04,   4.217135E+05,   0.000000E+00
  8.000000E+04,   1.000000E+05,   9.000000E+04,   7.154307E+05,   0.000000E+00
  1.000000E+05,   1.500000E+05,   1.250000E+05,   1.142215E+06,   0.000000E+00
  1.500000E+05,   2.000000E+05,   1.750000E+05,   4.918597E+05,   0.000000E+00
  2.000000E+05,   3.000000E+05,   2.500000E+05,   2.699575E+05,   0.000000E+00
  3.000000E+05,   4.000000E+05,   3.500000E+05,   4.911120E+04,   0.000000E+00
  4.000000E+05,   5.000000E+05,   4.500000E+05,   3.056317E+02,   0.000000E+00
  5.000000E+05,   8.000000E+05,   6.500000E+05,   3.989030E+01,   0.000000E+00
  8.000000E+05,   1.000000E+06,   0.000000E+00,   0.000000E+00,   0.000000E+00
'End of Block'
'*',    13,     3,     4,     0,     5,     5,    46,    -1
'OMNIDIRECTIONAL FLUENCE ANALYSIS'
'MULASSIS ml-v01-19'
'geant4-09-02-ref-00 (19-December-2008)'
'FLU_BDY', 1, 2, ' '
'FLU_PAR, -1, neutron '
'FLU_AMN', 1, 0., 'deg'
'FLU_AMX', 1, 90., 'deg'
'Elo','keV', 1, ' Lower edge of energy    bin '
'Eup','keV', 1, ' Upper edge of energy    bin '
'Emean','keV', 1, ' Mean energy of bin '
'Value','particles/cm2/bin',1,             'Fluence/flux'
'Error','particles/cm2/bin',1,'Error in   fluence/flux'
  0.000000E+00,   4.000000E+01,   2.000000E+01,   2.120631E+06,   0.000000E+00
  4.000000E+01,   1.000000E+02,   7.000000E+01,   3.180946E+06,   0.000000E+00
  1.000000E+02,   2.000000E+02,   1.500000E+02,   5.301577E+06,   0.000000E+00
  2.000000E+02,   3.000000E+02,   2.500000E+02,   5.301577E+06,   0.000000E+00
  3.000000E+02,   4.000000E+02,   3.500000E+02,   5.301577E+06,   0.000000E+00
  4.000000E+02,   5.000000E+02,   4.500000E+02,   5.301577E+06,   0.000000E+00
  5.000000E+02,   6.000000E+02,   5.500000E+02,   5.301577E+06,   0.000000E+00
  6.000000E+02,   7.000000E+02,   6.500000E+02,   5.301577E+06,   0.000000E+00
  7.000000E+02,   8.000000E+02,   7.500000E+02,   5.301577E+06,   0.000000E+00
  8.000000E+02,   1.000000E+03,   9.000000E+02,   1.060315E+07,   0.000000E+00
  1.000000E+03,   1.250000E+03,   1.125000E+03,   1.325394E+07,   0.000000E+00
  1.250000E+03,   1.500000E+03,   1.375000E+03,   1.318158E+07,   0.000000E+00
  1.500000E+03,   1.750000E+03,   1.625000E+03,   1.306071E+07,   0.000000E+00
  1.750000E+03,   2.000000E+03,   1.875000E+03,   1.298003E+07,   0.000000E+00
  2.000000E+03,   2.250000E+03,   2.125000E+03,   1.279955E+07,   0.000000E+00
  2.250000E+03,   2.500000E+03,   2.375000E+03,   1.270188E+07,   0.000000E+00
  2.500000E+03,   2.750000E+03,   2.625000E+03,   1.248850E+07,   0.000000E+00
  2.750000E+03,   3.000000E+03,   2.875000E+03,   1.223667E+07,   0.000000E+00
  3.000000E+03,   3.250000E+03,   3.125000E+03,   1.190265E+07,   0.000000E+00
  3.250000E+03,   3.500000E+03,   3.375000E+03,   1.180489E+07,   0.000000E+00
  3.500000E+03,   3.750000E+03,   3.625000E+03,   1.139089E+07,   0.000000E+00
  3.750000E+03,   4.000000E+03,   3.875000E+03,   1.127541E+07,   0.000000E+00
  4.000000E+03,   4.250000E+03,   4.125000E+03,   1.061648E+07,   0.000000E+00
  4.250000E+03,   4.500000E+03,   4.375000E+03,   1.049402E+07,   0.000000E+00
  4.500000E+03,   4.750000E+03,   4.625000E+03,   1.015196E+07,   0.000000E+00
  4.750000E+03,   5.000000E+03,   4.875000E+03,   9.821820E+06,   0.000000E+00
  5.000000E+03,   5.500000E+03,   5.250000E+03,   1.896742E+07,   0.000000E+00
  5.500000E+03,   6.000000E+03,   5.750000E+03,   1.796620E+07,   0.000000E+00
  6.000000E+03,   6.500000E+03,   6.250000E+03,   1.643563E+07,   0.000000E+00
  6.500000E+03,   7.000000E+03,   6.750000E+03,   1.570299E+07,   0.000000E+00
  7.000000E+03,   1.000000E+04,   8.500000E+03,   7.736515E+07,   0.000000E+00
  1.000000E+04,   2.000000E+04,   1.500000E+04,   1.402322E+08,   0.000000E+00
  2.000000E+04,   3.000000E+04,   2.500000E+04,   7.257814E+07,   0.000000E+00
  3.000000E+04,   4.000000E+04,   3.500000E+04,   4.992979E+07,   0.000000E+00
  4.000000E+04,   5.000000E+04,   4.500000E+04,   3.713629E+07,   0.000000E+00
  5.000000E+04,   6.000000E+04,   5.500000E+04,   2.875192E+07,   0.000000E+00
  6.000000E+04,   7.000000E+04,   6.500000E+04,   2.259685E+07,   0.000000E+00
  7.000000E+04,   8.000000E+04,   7.500000E+04,   1.824705E+07,   0.000000E+00
  8.000000E+04,   1.000000E+05,   9.000000E+04,   2.752374E+07,   0.000000E+00
  1.000000E+05,   1.500000E+05,   1.250000E+05,   3.992788E+07,   0.000000E+00
  1.500000E+05,   2.000000E+05,   1.750000E+05,   1.860838E+07,   0.000000E+00
  2.000000E+05,   3.000000E+05,   2.500000E+05,   1.087101E+07,   0.000000E+00
  3.000000E+05,   4.000000E+05,   3.500000E+05,   1.293974E+06,   0.000000E+00
  4.000000E+05,   5.000000E+05,   4.500000E+05,   6.725235E+03,   0.000000E+00
  5.000000E+05,   8.000000E+05,   6.500000E+05,   3.722268E+02,   0.000000E+00
  8.000000E+05,   1.000000E+06,   0.000000E+00,   0.000000E+00,   0.000000E+00
'End of File'
