'*',    13,     3,     4,     0,     5,     5,    46,     2
'OMNIDIRECTIONAL FLUENCE ANALYSIS'
'MULASSIS ml-v01-19'
'geant4-09-02-ref-00 (19-December-2008)'
'FLU_BDY', 1, 2, ' '
'FLU_PAR, -1, proton  '
'FLU_AMN', 1, 0., 'deg'
'FLU_AMX', 1, 90., 'deg'
'Elo','keV', 1, ' Lower edge of energy    bin '
'Eup','keV', 1, ' Upper edge of energy    bin '
'Emean','keV', 1, ' Mean energy of bin '
'Value','particles/cm2/bin',1,             'Fluence/flux'
'Error','particles/cm2/bin',1,'Error in   fluence/flux'
  0.000000E+00,   4.000000E+01,   2.000000E+01,   3.978053E+04,   0.000000E+00
  4.000000E+01,   1.000000E+02,   7.000000E+01,   5.967080E+04,   0.000000E+00
  1.000000E+02,   2.000000E+02,   1.500000E+02,   9.945133E+04,   0.000000E+00
  2.000000E+02,   3.000000E+02,   2.500000E+02,   9.945133E+04,   0.000000E+00
  3.000000E+02,   4.000000E+02,   3.500000E+02,   9.945133E+04,   0.000000E+00
  4.000000E+02,   5.000000E+02,   4.500000E+02,   9.945133E+04,   0.000000E+00
  5.000000E+02,   6.000000E+02,   5.500000E+02,   9.945133E+04,   0.000000E+00
  6.000000E+02,   7.000000E+02,   6.500000E+02,   9.945133E+04,   0.000000E+00
  7.000000E+02,   8.000000E+02,   7.500000E+02,   9.945133E+04,   0.000000E+00
  8.000000E+02,   1.000000E+03,   9.000000E+02,   1.989027E+05,   0.000000E+00
  1.000000E+03,   1.250000E+03,   1.125000E+03,   2.486283E+05,   0.000000E+00
  1.250000E+03,   1.500000E+03,   1.375000E+03,   2.797138E+05,   0.000000E+00
  1.500000E+03,   1.750000E+03,   1.625000E+03,   3.316402E+05,   0.000000E+00
  1.750000E+03,   2.000000E+03,   1.875000E+03,   3.509872E+05,   0.000000E+00
  2.000000E+03,   2.250000E+03,   2.125000E+03,   3.942669E+05,   0.000000E+00
  2.250000E+03,   2.500000E+03,   2.375000E+03,   4.065400E+05,   0.000000E+00
  2.500000E+03,   2.750000E+03,   2.625000E+03,   4.333538E+05,   0.000000E+00
  2.750000E+03,   3.000000E+03,   2.875000E+03,   4.966816E+05,   0.000000E+00
  3.000000E+03,   3.250000E+03,   3.125000E+03,   5.349081E+05,   0.000000E+00
  3.250000E+03,   3.500000E+03,   3.375000E+03,   5.389901E+05,   0.000000E+00
  3.500000E+03,   3.750000E+03,   3.625000E+03,   5.562765E+05,   0.000000E+00
  3.750000E+03,   4.000000E+03,   3.875000E+03,   5.907549E+05,   0.000000E+00
  4.000000E+03,   4.250000E+03,   4.125000E+03,   6.365831E+05,   0.000000E+00
  4.250000E+03,   4.500000E+03,   4.375000E+03,   6.979232E+05,   0.000000E+00
  4.500000E+03,   4.750000E+03,   4.625000E+03,   7.048659E+05,   0.000000E+00
  4.750000E+03,   5.000000E+03,   4.875000E+03,   7.315605E+05,   0.000000E+00
  5.000000E+03,   5.500000E+03,   5.250000E+03,   1.497356E+06,   0.000000E+00
  5.500000E+03,   6.000000E+03,   5.750000E+03,   1.681908E+06,   0.000000E+00
  6.000000E+03,   6.500000E+03,   6.250000E+03,   1.819394E+06,   0.000000E+00
  6.500000E+03,   7.000000E+03,   6.750000E+03,   1.830008E+06,   0.000000E+00
  7.000000E+03,   1.000000E+04,   8.500000E+03,   1.400908E+07,   0.000000E+00
  1.000000E+04,   2.000000E+04,   1.500000E+04,   8.871384E+07,   0.000000E+00
  2.000000E+04,   3.000000E+04,   2.500000E+04,   1.061912E+08,   0.000000E+00
  3.000000E+04,   4.000000E+04,   3.500000E+04,   9.671455E+07,   0.000000E+00
  4.000000E+04,   5.000000E+04,   4.500000E+04,   9.091867E+07,   0.000000E+00
  5.000000E+04,   6.000000E+04,   5.500000E+04,   8.086699E+07,   0.000000E+00
  6.000000E+04,   7.000000E+04,   6.500000E+04,   6.762815E+07,   0.000000E+00
  7.000000E+04,   8.000000E+04,   7.500000E+04,   5.254052E+07,   0.000000E+00
  8.000000E+04,   1.000000E+05,   9.000000E+04,   6.393488E+07,   0.000000E+00
  1.000000E+05,   1.500000E+05,   1.250000E+05,   7.747609E+07,   0.000000E+00
  1.500000E+05,   2.000000E+05,   1.750000E+05,   3.153051E+07,   0.000000E+00
  2.000000E+05,   3.000000E+05,   2.500000E+05,   2.865165E+07,   0.000000E+00
  3.000000E+05,   4.000000E+05,   3.500000E+05,   7.870391E+06,   0.000000E+00
  4.000000E+05,   5.000000E+05,   4.500000E+05,   2.419225E+06,   0.000000E+00
  5.000000E+05,   8.000000E+05,   6.500000E+05,   7.870145E+05,   0.000000E+00
  8.000000E+05,   1.000000E+06,   0.000000E+00,   0.000000E+00,   0.000000E+00
'End of Block'
'*',    13,     3,     4,     0,     5,     5,    46,     1
'OMNIDIRECTIONAL FLUENCE ANALYSIS'
'MULASSIS ml-v01-19'
'geant4-09-02-ref-00 (19-December-2008)'
'FLU_BDY', 1, 2, ' '
'FLU_PAR, -1, e-      '
'FLU_AMN', 1, 0., 'deg'
'FLU_AMX', 1, 90., 'deg'
'Elo','keV', 1, ' Lower edge of energy    bin '
'Eup','keV', 1, ' Upper edge of energy    bin '
'Emean','keV', 1, ' Mean energy of bin '
'Value','particles/cm2/bin',1,             'Fluence/flux'
'Error','particles/cm2/bin',1,'Error in   fluence/flux'
  0.000000E+00,   4.000000E+01,   2.000000E+01,   2.128421E+09,   0.000000E+00
  4.000000E+01,   1.000000E+02,   7.000000E+01,   1.947843E+09,   0.000000E+00
  1.000000E+02,   2.000000E+02,   1.500000E+02,   2.731700E+09,   0.000000E+00
  2.000000E+02,   3.000000E+02,   2.500000E+02,   3.046985E+09,   0.000000E+00
  3.000000E+02,   4.000000E+02,   3.500000E+02,   2.964982E+09,   0.000000E+00
  4.000000E+02,   5.000000E+02,   4.500000E+02,   2.846087E+09,   0.000000E+00
  5.000000E+02,   6.000000E+02,   5.500000E+02,   2.578600E+09,   0.000000E+00
  6.000000E+02,   7.000000E+02,   6.500000E+02,   2.303022E+09,   0.000000E+00
  7.000000E+02,   8.000000E+02,   7.500000E+02,   2.005782E+09,   0.000000E+00
  8.000000E+02,   1.000000E+03,   9.000000E+02,   3.107683E+09,   0.000000E+00
  1.000000E+03,   1.250000E+03,   1.125000E+03,   2.438215E+09,   0.000000E+00
  1.250000E+03,   1.500000E+03,   1.375000E+03,   1.359877E+09,   0.000000E+00
  1.500000E+03,   1.750000E+03,   1.625000E+03,   6.595739E+08,   0.000000E+00
  1.750000E+03,   2.000000E+03,   1.875000E+03,   2.747718E+08,   0.000000E+00
  2.000000E+03,   2.250000E+03,   2.125000E+03,   1.059874E+08,   0.000000E+00
  2.250000E+03,   2.500000E+03,   2.375000E+03,   3.616603E+07,   0.000000E+00
  2.500000E+03,   2.750000E+03,   2.625000E+03,   1.322178E+07,   0.000000E+00
  2.750000E+03,   3.000000E+03,   2.875000E+03,   5.510746E+06,   0.000000E+00
  3.000000E+03,   3.250000E+03,   3.125000E+03,   3.280039E+06,   0.000000E+00
  3.250000E+03,   3.500000E+03,   3.375000E+03,   2.411009E+06,   0.000000E+00
  3.500000E+03,   3.750000E+03,   3.625000E+03,   1.528054E+06,   0.000000E+00
  3.750000E+03,   4.000000E+03,   3.875000E+03,   8.881979E+05,   0.000000E+00
  4.000000E+03,   4.250000E+03,   4.125000E+03,   4.753668E+05,   0.000000E+00
  4.250000E+03,   4.500000E+03,   4.375000E+03,   2.358816E+05,   0.000000E+00
  4.500000E+03,   4.750000E+03,   4.625000E+03,   1.052178E+05,   0.000000E+00
  4.750000E+03,   5.000000E+03,   4.875000E+03,   4.168995E+04,   0.000000E+00
  5.000000E+03,   5.500000E+03,   5.250000E+03,   2.105444E+04,   0.000000E+00
  5.500000E+03,   6.000000E+03,   5.750000E+03,   4.793336E+03,   0.000000E+00
  6.000000E+03,   6.500000E+03,   6.250000E+03,   3.363969E+03,   0.000000E+00
  6.500000E+03,   7.000000E+03,   6.750000E+03,   3.363969E+03,   0.000000E+00
  7.000000E+03,   1.000000E+04,   8.500000E+03,   2.018381E+04,   0.000000E+00
  1.000000E+04,   2.000000E+04,   1.500000E+04,   6.727938E+04,   0.000000E+00
  2.000000E+04,   3.000000E+04,   2.500000E+04,   6.727938E+04,   0.000000E+00
  3.000000E+04,   4.000000E+04,   3.500000E+04,   6.727938E+04,   0.000000E+00
  4.000000E+04,   5.000000E+04,   4.500000E+04,   6.187711E+04,   0.000000E+00
  5.000000E+04,   6.000000E+04,   5.500000E+04,   3.561640E+04,   0.000000E+00
  6.000000E+04,   7.000000E+04,   6.500000E+04,   2.166733E+04,   0.000000E+00
  7.000000E+04,   8.000000E+04,   7.500000E+04,   1.437591E+04,   0.000000E+00
  8.000000E+04,   1.000000E+05,   9.000000E+04,   1.937008E+04,   0.000000E+00
  1.000000E+05,   1.500000E+05,   1.250000E+05,   2.321091E+04,   0.000000E+00
  1.500000E+05,   2.000000E+05,   1.750000E+05,   7.593376E+03,   0.000000E+00
  2.000000E+05,   3.000000E+05,   2.500000E+05,   4.117620E+03,   0.000000E+00
  3.000000E+05,   4.000000E+05,   3.500000E+05,   1.032517E+03,   0.000000E+00
  4.000000E+05,   5.000000E+05,   4.500000E+05,   3.056317E+02,   0.000000E+00
  5.000000E+05,   8.000000E+05,   6.500000E+05,   3.989030E+01,   0.000000E+00
  8.000000E+05,   1.000000E+06,   0.000000E+00,   0.000000E+00,   0.000000E+00
'End of Block'
'*',    13,     3,     4,     0,     5,     5,    46,    -1
'OMNIDIRECTIONAL FLUENCE ANALYSIS'
'MULASSIS ml-v01-19'
'geant4-09-02-ref-00 (19-December-2008)'
'FLU_BDY', 1, 2, ' '
'FLU_PAR, -1, neutron '
'FLU_AMN', 1, 0., 'deg'
'FLU_AMX', 1, 90., 'deg'
'Elo','keV', 1, ' Lower edge of energy    bin '
'Eup','keV', 1, ' Upper edge of energy    bin '
'Emean','keV', 1, ' Mean energy of bin '
'Value','particles/cm2/bin',1,             'Fluence/flux'
'Error','particles/cm2/bin',1,'Error in   fluence/flux'
  0.000000E+00,   4.000000E+01,   2.000000E+01,   1.637847E+05,   0.000000E+00
  4.000000E+01,   1.000000E+02,   7.000000E+01,   2.456770E+05,   0.000000E+00
  1.000000E+02,   2.000000E+02,   1.500000E+02,   4.094617E+05,   0.000000E+00
  2.000000E+02,   3.000000E+02,   2.500000E+02,   4.094617E+05,   0.000000E+00
  3.000000E+02,   4.000000E+02,   3.500000E+02,   4.094617E+05,   0.000000E+00
  4.000000E+02,   5.000000E+02,   4.500000E+02,   4.094617E+05,   0.000000E+00
  5.000000E+02,   6.000000E+02,   5.500000E+02,   4.094617E+05,   0.000000E+00
  6.000000E+02,   7.000000E+02,   6.500000E+02,   4.094617E+05,   0.000000E+00
  7.000000E+02,   8.000000E+02,   7.500000E+02,   4.094617E+05,   0.000000E+00
  8.000000E+02,   1.000000E+03,   9.000000E+02,   8.189234E+05,   0.000000E+00
  1.000000E+03,   1.250000E+03,   1.125000E+03,   1.023654E+06,   0.000000E+00
  1.250000E+03,   1.500000E+03,   1.375000E+03,   1.004746E+06,   0.000000E+00
  1.500000E+03,   1.750000E+03,   1.625000E+03,   9.731600E+05,   0.000000E+00
  1.750000E+03,   2.000000E+03,   1.875000E+03,   9.571024E+05,   0.000000E+00
  2.000000E+03,   2.250000E+03,   2.125000E+03,   9.211813E+05,   0.000000E+00
  2.250000E+03,   2.500000E+03,   2.375000E+03,   9.044289E+05,   0.000000E+00
  2.500000E+03,   2.750000E+03,   2.625000E+03,   8.678291E+05,   0.000000E+00
  2.750000E+03,   3.000000E+03,   2.875000E+03,   8.180652E+05,   0.000000E+00
  3.000000E+03,   3.250000E+03,   3.125000E+03,   7.694737E+05,   0.000000E+00
  3.250000E+03,   3.500000E+03,   3.375000E+03,   7.598857E+05,   0.000000E+00
  3.500000E+03,   3.750000E+03,   3.625000E+03,   7.192825E+05,   0.000000E+00
  3.750000E+03,   4.000000E+03,   3.875000E+03,   6.962977E+05,   0.000000E+00
  4.000000E+03,   4.250000E+03,   4.125000E+03,   6.334314E+05,   0.000000E+00
  4.250000E+03,   4.500000E+03,   4.375000E+03,   6.046598E+05,   0.000000E+00
  4.500000E+03,   4.750000E+03,   4.625000E+03,   5.810343E+05,   0.000000E+00
  4.750000E+03,   5.000000E+03,   4.875000E+03,   5.477510E+05,   0.000000E+00
  5.000000E+03,   5.500000E+03,   5.250000E+03,   1.041036E+06,   0.000000E+00
  5.500000E+03,   6.000000E+03,   5.750000E+03,   9.438814E+05,   0.000000E+00
  6.000000E+03,   6.500000E+03,   6.250000E+03,   8.411353E+05,   0.000000E+00
  6.500000E+03,   7.000000E+03,   6.750000E+03,   8.138302E+05,   0.000000E+00
  7.000000E+03,   1.000000E+04,   8.500000E+03,   3.750142E+06,   0.000000E+00
  1.000000E+04,   2.000000E+04,   1.500000E+04,   6.664043E+06,   0.000000E+00
  2.000000E+04,   3.000000E+04,   2.500000E+04,   3.432380E+06,   0.000000E+00
  3.000000E+04,   4.000000E+04,   3.500000E+04,   2.104325E+06,   0.000000E+00
  4.000000E+04,   5.000000E+04,   4.500000E+04,   1.359321E+06,   0.000000E+00
  5.000000E+04,   6.000000E+04,   5.500000E+04,   8.995467E+05,   0.000000E+00
  6.000000E+04,   7.000000E+04,   6.500000E+04,   6.042428E+05,   0.000000E+00
  7.000000E+04,   8.000000E+04,   7.500000E+04,   4.246554E+05,   0.000000E+00
  8.000000E+04,   1.000000E+05,   9.000000E+04,   5.590781E+05,   0.000000E+00
  1.000000E+05,   1.500000E+05,   1.250000E+05,   6.801765E+05,   0.000000E+00
  1.500000E+05,   2.000000E+05,   1.750000E+05,   2.748862E+05,   0.000000E+00
  2.000000E+05,   3.000000E+05,   2.500000E+05,   1.679751E+05,   0.000000E+00
  3.000000E+05,   4.000000E+05,   3.500000E+05,   2.942328E+04,   0.000000E+00
  4.000000E+05,   5.000000E+05,   4.500000E+05,   6.725235E+03,   0.000000E+00
  5.000000E+05,   8.000000E+05,   6.500000E+05,   3.722268E+02,   0.000000E+00
  8.000000E+05,   1.000000E+06,   0.000000E+00,   0.000000E+00,   0.000000E+00
'End of File'
