Energy
(MeV)	NIEL
(MeV cm2 g-1)	NIEL Dose*
(MeV g-1)	NIEL Dose*
(Gy)
1.0000e-05	0.0000e+00	0.0000e+00	0.0000e+00
1.5000e-05	0.0000e+00	0.0000e+00	0.0000e+00
2.0000e-05	0.0000e+00	0.0000e+00	0.0000e+00
2.5000e-05	0.0000e+00	0.0000e+00	0.0000e+00
3.0000e-05	2.2383e+00	2.2383e+00	3.5870e-10
3.5000e-05	6.0114e+00	6.0114e+00	9.6337e-10
4.0000e-05	1.1044e+01	1.1044e+01	1.7699e-09
4.5000e-05	1.5675e+01	1.5675e+01	2.5120e-09
5.0000e-05	1.9976e+01	1.9976e+01	3.2013e-09
5.5000e-05	2.4003e+01	2.4003e+01	3.8466e-09
6.0000e-05	2.7794e+01	2.7794e+01	4.4542e-09
6.5000e-05	3.1383e+01	3.1383e+01	5.0293e-09
7.0000e-05	3.4794e+01	3.4794e+01	5.5759e-09
7.5000e-05	3.8048e+01	3.8048e+01	6.0974e-09
8.0000e-05	4.1161e+01	4.1161e+01	6.5963e-09
8.5000e-05	4.4149e+01	4.4149e+01	7.0751e-09
9.0000e-05	4.7022e+01	4.7022e+01	7.5355e-09
9.5000e-05	4.9791e+01	4.9791e+01	7.9793e-09
1.0000e-04	5.2464e+01	5.2464e+01	8.4078e-09
1.5000e-04	7.5268e+01	7.5268e+01	1.2062e-08
2.0000e-04	9.3328e+01	9.3328e+01	1.4956e-08
2.5000e-04	1.0845e+02	1.0845e+02	1.7381e-08
3.0000e-04	1.2155e+02	1.2155e+02	1.9479e-08
3.5000e-04	1.3313e+02	1.3313e+02	2.1335e-08
4.0000e-04	1.4354e+02	1.4354e+02	2.3002e-08
4.5000e-04	1.5300e+02	1.5300e+02	2.4519e-08
5.0000e-04	1.6168e+02	1.6168e+02	2.5910e-08
5.5000e-04	1.6971e+02	1.6971e+02	2.7196e-08
6.0000e-04	1.7717e+02	1.7717e+02	2.8393e-08
6.5000e-04	1.8415e+02	1.8415e+02	2.9511e-08
7.0000e-04	1.9071e+02	1.9071e+02	3.0562e-08
7.5000e-04	1.9688e+02	1.9688e+02	3.1552e-08
8.0000e-04	2.0273e+02	2.0273e+02	3.2488e-08
8.5000e-04	2.0827e+02	2.0827e+02	3.3377e-08
9.0000e-04	2.1354e+02	2.1354e+02	3.4221e-08
9.5000e-04	2.1856e+02	2.1856e+02	3.5026e-08
1.0000e-03	2.2336e+02	2.2336e+02	3.5795e-08
1.5000e-03	2.6219e+02	2.6219e+02	4.2018e-08
2.0000e-03	2.9029e+02	2.9029e+02	4.6520e-08
2.5000e-03	3.1206e+02	3.1206e+02	5.0009e-08
3.0000e-03	3.2963e+02	3.2963e+02	5.2826e-08
3.5000e-03	3.4423e+02	3.4423e+02	5.5164e-08
4.0000e-03	3.5659e+02	3.5659e+02	5.7146e-08
4.5000e-03	3.6722e+02	3.6722e+02	5.8850e-08
5.0000e-03	3.7648e+02	3.7648e+02	6.0334e-08
5.5000e-03	3.8462e+02	3.8462e+02	6.1638e-08
6.0000e-03	3.9183e+02	3.9183e+02	6.2793e-08
6.5000e-03	3.9825e+02	3.9825e+02	6.3822e-08
7.0000e-03	4.0401e+02	4.0401e+02	6.4745e-08
7.5000e-03	4.0919e+02	4.0919e+02	6.5576e-08
8.0000e-03	4.1388e+02	4.1388e+02	6.6327e-08
8.5000e-03	4.1813e+02	4.1813e+02	6.7008e-08
9.0000e-03	4.2200e+02	4.2200e+02	6.7628e-08
9.5000e-03	4.2552e+02	4.2552e+02	6.8192e-08
1.0000e-02	4.2874e+02	4.2874e+02	6.8708e-08
1.5000e-02	4.4942e+02	4.4942e+02	7.2022e-08
2.0000e-02	4.5814e+02	4.5814e+02	7.3420e-08
2.5000e-02	4.6098e+02	4.6098e+02	7.3876e-08
3.0000e-02	4.6055e+02	4.6055e+02	7.3807e-08
3.5000e-02	4.5817e+02	4.5817e+02	7.3425e-08
4.0000e-02	4.5458e+02	4.5458e+02	7.2849e-08
4.5000e-02	4.5022e+02	4.5022e+02	7.2151e-08
5.0000e-02	4.4539e+02	4.4539e+02	7.1376e-08
5.5000e-02	4.4026e+02	4.4026e+02	7.0555e-08
6.0000e-02	4.3497e+02	4.3497e+02	6.9706e-08
6.5000e-02	4.2959e+02	4.2959e+02	6.8845e-08
7.0000e-02	4.2420e+02	4.2420e+02	6.7980e-08
7.5000e-02	4.1883e+02	4.1883e+02	6.7119e-08
8.0000e-02	4.1350e+02	4.1350e+02	6.6267e-08
8.5000e-02	4.0825e+02	4.0825e+02	6.5425e-08
9.0000e-02	4.0309e+02	4.0309e+02	6.4598e-08
9.5000e-02	3.9803e+02	3.9803e+02	6.3786e-08
1.0000e-01	3.9306e+02	3.9306e+02	6.2991e-08
1.5000e-01	3.4932e+02	3.4932e+02	5.5980e-08
2.0000e-01	3.1295e+02	3.1295e+02	5.0151e-08
2.5000e-01	2.8398e+02	2.8398e+02	4.5510e-08
3.0000e-01	2.5955e+02	2.5955e+02	4.1595e-08
3.5000e-01	2.4054e+02	2.4054e+02	3.8548e-08
4.0000e-01	2.2520e+02	2.2520e+02	3.6090e-08
4.5000e-01	2.1249e+02	2.1249e+02	3.4053e-08
5.0000e-01	2.0173e+02	2.0173e+02	3.2328e-08
5.5000e-01	1.9217e+02	1.9217e+02	3.0796e-08
6.0000e-01	1.8365e+02	1.8365e+02	2.9432e-08
6.5000e-01	1.7605e+02	1.7605e+02	2.8213e-08
7.0000e-01	1.6921e+02	1.6921e+02	2.7117e-08
7.5000e-01	1.6295e+02	1.6295e+02	2.6114e-08
8.0000e-01	1.5705e+02	1.5705e+02	2.5168e-08
8.5000e-01	1.5159e+02	1.5159e+02	2.4293e-08
9.0000e-01	1.4652e+02	1.4652e+02	2.3481e-08
9.5000e-01	1.4181e+02	1.4181e+02	2.2726e-08
1.0000e+00	1.3742e+02	1.3742e+02	2.2022e-08
1.5000e+00	1.0565e+02	1.0565e+02	1.6932e-08
2.0000e+00	8.6546e+01	8.6546e+01	1.3870e-08
2.5000e+00	7.3683e+01	7.3683e+01	1.1808e-08
3.0000e+00	6.4379e+01	6.4379e+01	1.0317e-08
3.5000e+00	5.7306e+01	5.7306e+01	9.1836e-09
4.0000e+00	5.1731e+01	5.1731e+01	8.2902e-09
4.5000e+00	4.7214e+01	4.7214e+01	7.5663e-09
5.0000e+00	4.3472e+01	4.3472e+01	6.9666e-09
5.5000e+00	4.0317e+01	4.0317e+01	6.4611e-09
6.0000e+00	3.7618e+01	3.7618e+01	6.0286e-09
6.5000e+00	3.5281e+01	3.5281e+01	5.6540e-09
7.0000e+00	3.3235e+01	3.3235e+01	5.3262e-09
7.5000e+00	3.1429e+01	3.1429e+01	5.0367e-09
8.0000e+00	2.9821e+01	2.9821e+01	4.7790e-09
8.5000e+00	2.8379e+01	2.8379e+01	4.5480e-09
9.0000e+00	2.7080e+01	2.7080e+01	4.3397e-09
9.5000e+00	2.5901e+01	2.5901e+01	4.1508e-09
1.0000e+01	2.4827e+01	2.4827e+01	3.9786e-09
1.5000e+01	1.7686e+01	1.7686e+01	2.8343e-09
2.0000e+01	1.3844e+01	1.3844e+01	2.2186e-09
2.5000e+01	1.1424e+01	1.1424e+01	1.8307e-09
3.0000e+01	9.7507e+00	9.7507e+00	1.5626e-09
3.5000e+01	8.5209e+00	8.5209e+00	1.3655e-09
4.0000e+01	7.5767e+00	7.5767e+00	1.2142e-09
4.5000e+01	6.8276e+00	6.8276e+00	1.0942e-09
5.0000e+01	6.2180e+00	6.2180e+00	9.9647e-10
5.5000e+01	5.7117e+00	5.7117e+00	9.1533e-10
6.0000e+01	5.2841e+00	5.2841e+00	8.4681e-10
6.5000e+01	4.9180e+00	4.9180e+00	7.8814e-10
7.0000e+01	4.6008e+00	4.6008e+00	7.3731e-10
7.5000e+01	4.3232e+00	4.3232e+00	6.9282e-10
8.0000e+01	4.0781e+00	4.0781e+00	6.5355e-10
8.5000e+01	3.8601e+00	3.8601e+00	6.1860e-10
9.0000e+01	3.6648e+00	3.6648e+00	5.8730e-10
9.5000e+01	3.4888e+00	3.4888e+00	5.5910e-10
1.0000e+02	3.3294e+00	3.3294e+00	5.3355e-10
1.5000e+02	2.2936e+00	2.2936e+00	3.6757e-10
2.0000e+02	1.7557e+00	1.7557e+00	2.8136e-10
2.5000e+02	1.4250e+00	1.4250e+00	2.2837e-10
3.0000e+02	1.2008e+00	1.2008e+00	1.9244e-10
3.5000e+02	1.0386e+00	1.0386e+00	1.6645e-10
4.0000e+02	9.1581e-01	9.1581e-01	1.4676e-10
4.5000e+02	8.1953e-01	8.1953e-01	1.3134e-10
5.0000e+02	7.4202e-01	7.4202e-01	1.1891e-10
5.5000e+02	6.7826e-01	6.7826e-01	1.0870e-10
6.0000e+02	6.2489e-01	6.2489e-01	1.0014e-10
6.5000e+02	5.7956e-01	5.7956e-01	9.2878e-11
7.0000e+02	5.4057e-01	5.4057e-01	8.6630e-11
7.5000e+02	5.0668e-01	5.0668e-01	8.1199e-11
8.0000e+02	4.7696e-01	4.7696e-01	7.6435e-11
8.5000e+02	4.5067e-01	4.5067e-01	7.2222e-11
9.0000e+02	4.2725e-01	4.2725e-01	6.8470e-11
9.5000e+02	4.0626e-01	4.0626e-01	6.5106e-11
1.0000e+03	3.8734e-01	3.8734e-01	6.2074e-11
5.0000e+03	9.6199e-02	9.6199e-02	1.5417e-11
1.0000e+04	5.9718e-02	5.9718e-02	9.5702e-12
5.0000e+04	3.2366e-02	3.2366e-02	5.1869e-12
1.0000e+05	2.9845e-02	2.9845e-02	4.7829e-12
* The mediun has to to be thick enough to fully absorb the kinetic energy of recoil nuclei.