Energy
(MeV)	Elec. Stopping Power
(MeV cm2 g-1)	Ionizing Dose*
(MeV g-1)	Ionizing Dose*
(Gy)
1.0000e-05	4.3290e+00	4.3290e+00	6.9375e-10
1.5000e-05	5.3020e+00	5.3020e+00	8.4968e-10
2.0000e-05	6.1220e+00	6.1220e+00	9.8109e-10
2.5000e-05	6.8440e+00	6.8440e+00	1.0968e-09
3.0000e-05	7.4980e+00	7.4980e+00	1.2016e-09
3.5000e-05	8.0980e+00	8.0980e+00	1.2978e-09
4.0000e-05	8.6580e+00	8.6580e+00	1.3875e-09
4.5000e-05	9.1830e+00	9.1830e+00	1.4716e-09
5.0000e-05	9.6790e+00	9.6790e+00	1.5511e-09
5.5000e-05	1.0150e+01	1.0150e+01	1.6266e-09
6.0000e-05	1.0600e+01	1.0600e+01	1.6987e-09
6.5000e-05	1.1040e+01	1.1040e+01	1.7692e-09
7.0000e-05	1.1450e+01	1.1450e+01	1.8349e-09
7.5000e-05	1.1850e+01	1.1850e+01	1.8990e-09
8.0000e-05	1.2240e+01	1.2240e+01	1.9615e-09
8.5000e-05	1.2620e+01	1.2620e+01	2.0224e-09
9.0000e-05	1.2990e+01	1.2990e+01	2.0817e-09
9.5000e-05	1.3340e+01	1.3340e+01	2.1378e-09
1.0000e-04	1.3690e+01	1.3690e+01	2.1939e-09
1.5000e-04	1.6770e+01	1.6770e+01	2.6875e-09
2.0000e-04	1.9360e+01	1.9360e+01	3.1026e-09
2.5000e-04	2.1640e+01	2.1640e+01	3.4679e-09
3.0000e-04	2.3710e+01	2.3710e+01	3.7997e-09
3.5000e-04	2.5610e+01	2.5610e+01	4.1042e-09
4.0000e-04	2.7380e+01	2.7380e+01	4.3878e-09
4.5000e-04	2.9040e+01	2.9040e+01	4.6538e-09
5.0000e-04	3.0610e+01	3.0610e+01	4.9054e-09
5.5000e-04	3.2100e+01	3.2100e+01	5.1442e-09
6.0000e-04	3.3530e+01	3.3530e+01	5.3734e-09
6.5000e-04	3.4900e+01	3.4900e+01	5.5929e-09
7.0000e-04	3.6220e+01	3.6220e+01	5.8045e-09
7.5000e-04	3.7490e+01	3.7490e+01	6.0080e-09
8.0000e-04	3.8720e+01	3.8720e+01	6.2051e-09
8.5000e-04	3.9910e+01	3.9910e+01	6.3958e-09
9.0000e-04	4.1070e+01	4.1070e+01	6.5817e-09
9.5000e-04	4.2190e+01	4.2190e+01	6.7612e-09
1.0000e-03	4.3290e+01	4.3290e+01	6.9375e-09
1.5000e-03	5.3020e+01	5.3020e+01	8.4968e-09
2.0000e-03	6.1220e+01	6.1220e+01	9.8109e-09
2.5000e-03	6.8440e+01	6.8440e+01	1.0968e-08
3.0000e-03	7.4980e+01	7.4980e+01	1.2016e-08
3.5000e-03	8.0980e+01	8.0980e+01	1.2978e-08
4.0000e-03	8.6580e+01	8.6580e+01	1.3875e-08
4.5000e-03	9.1830e+01	9.1830e+01	1.4716e-08
5.0000e-03	9.6800e+01	9.6800e+01	1.5513e-08
5.5000e-03	1.0150e+02	1.0150e+02	1.6266e-08
6.0000e-03	1.0600e+02	1.0600e+02	1.6987e-08
6.5000e-03	1.1040e+02	1.1040e+02	1.7692e-08
7.0000e-03	1.1450e+02	1.1450e+02	1.8349e-08
7.5000e-03	1.1850e+02	1.1850e+02	1.8990e-08
8.0000e-03	1.2240e+02	1.2240e+02	1.9615e-08
8.5000e-03	1.2620e+02	1.2620e+02	2.0224e-08
9.0000e-03	1.2990e+02	1.2990e+02	2.0817e-08
9.5000e-03	1.3340e+02	1.3340e+02	2.1378e-08
1.0000e-02	1.3690e+02	1.3690e+02	2.1939e-08
1.5000e-02	1.6770e+02	1.6770e+02	2.6875e-08
2.0000e-02	1.9360e+02	1.9360e+02	3.1026e-08
2.5000e-02	2.1640e+02	2.1640e+02	3.4679e-08
3.0000e-02	2.3710e+02	2.3710e+02	3.7997e-08
3.5000e-02	2.5610e+02	2.5610e+02	4.1042e-08
4.0000e-02	2.7380e+02	2.7380e+02	4.3878e-08
4.5000e-02	2.9040e+02	2.9040e+02	4.6538e-08
5.0000e-02	3.0610e+02	3.0610e+02	4.9054e-08
5.5000e-02	3.2100e+02	3.2100e+02	5.1442e-08
6.0000e-02	3.3530e+02	3.3530e+02	5.3734e-08
6.5000e-02	3.4900e+02	3.4900e+02	5.5929e-08
7.0000e-02	3.6220e+02	3.6220e+02	5.8045e-08
7.5000e-02	3.7490e+02	3.7490e+02	6.0080e-08
8.0000e-02	3.8720e+02	3.8720e+02	6.2051e-08
8.5000e-02	3.9910e+02	3.9910e+02	6.3958e-08
9.0000e-02	4.1070e+02	4.1070e+02	6.5817e-08
9.5000e-02	4.2190e+02	4.2190e+02	6.7612e-08
1.0000e-01	4.3290e+02	4.3290e+02	6.9375e-08
1.5000e-01	6.0180e+02	6.0180e+02	9.6442e-08
2.0000e-01	6.7320e+02	6.7320e+02	1.0788e-07
2.5000e-01	7.2060e+02	7.2060e+02	1.1548e-07
3.0000e-01	7.6870e+02	7.6870e+02	1.2319e-07
3.5000e-01	8.2120e+02	8.2120e+02	1.3160e-07
4.0000e-01	8.7740e+02	8.7740e+02	1.4061e-07
4.5000e-01	9.3590e+02	9.3590e+02	1.4998e-07
5.0000e-01	9.9560e+02	9.9560e+02	1.5955e-07
5.5000e-01	1.0550e+03	1.0550e+03	1.6907e-07
6.0000e-01	1.1150e+03	1.1150e+03	1.7869e-07
6.5000e-01	1.1740e+03	1.1740e+03	1.8814e-07
7.0000e-01	1.2310e+03	1.2310e+03	1.9728e-07
7.5000e-01	1.2880e+03	1.2880e+03	2.0641e-07
8.0000e-01	1.3440e+03	1.3440e+03	2.1538e-07
8.5000e-01	1.3980e+03	1.3980e+03	2.2404e-07
9.0000e-01	1.4520e+03	1.4520e+03	2.3269e-07
9.5000e-01	1.5040e+03	1.5040e+03	2.4103e-07
1.0000e+00	1.5560e+03	1.5560e+03	2.4936e-07
1.5000e+00	2.0350e+03	2.0350e+03	3.2612e-07
2.0000e+00	2.4830e+03	2.4830e+03	3.9792e-07
2.5000e+00	2.9280e+03	2.9280e+03	4.6923e-07
3.0000e+00	3.3790e+03	3.3790e+03	5.4151e-07
3.5000e+00	3.8380e+03	3.8380e+03	6.1506e-07
4.0000e+00	4.3040e+03	4.3040e+03	6.8974e-07
4.5000e+00	4.7760e+03	4.7760e+03	7.6538e-07
5.0000e+00	5.2510e+03	5.2510e+03	8.4151e-07
5.5000e+00	5.7270e+03	5.7270e+03	9.1779e-07
6.0000e+00	6.2010e+03	6.2010e+03	9.9375e-07
6.5000e+00	6.6720e+03	6.6720e+03	1.0692e-06
7.0000e+00	7.1370e+03	7.1370e+03	1.1438e-06
7.5000e+00	7.5960e+03	7.5960e+03	1.2173e-06
8.0000e+00	8.0460e+03	8.0460e+03	1.2894e-06
8.5000e+00	8.4870e+03	8.4870e+03	1.3601e-06
9.0000e+00	8.9180e+03	8.9180e+03	1.4292e-06
9.5000e+00	9.3380e+03	9.3380e+03	1.4965e-06
1.0000e+01	9.7460e+03	9.7460e+03	1.5619e-06
1.5000e+01	1.3190e+04	1.3190e+04	2.1138e-06
2.0000e+01	1.5640e+04	1.5640e+04	2.5064e-06
2.5000e+01	1.7420e+04	1.7420e+04	2.7917e-06
3.0000e+01	1.8750e+04	1.8750e+04	3.0048e-06
3.5000e+01	1.9740e+04	1.9740e+04	3.1635e-06
4.0000e+01	2.0490e+04	2.0490e+04	3.2837e-06
4.5000e+01	2.1060e+04	2.1060e+04	3.3750e-06
5.0000e+01	2.1490e+04	2.1490e+04	3.4439e-06
5.5000e+01	2.1810e+04	2.1810e+04	3.4952e-06
6.0000e+01	2.2040e+04	2.2040e+04	3.5321e-06
6.5000e+01	2.2210e+04	2.2210e+04	3.5593e-06
7.0000e+01	2.2330e+04	2.2330e+04	3.5785e-06
7.5000e+01	2.2400e+04	2.2400e+04	3.5897e-06
8.0000e+01	2.2430e+04	2.2430e+04	3.5946e-06
8.5000e+01	2.2440e+04	2.2440e+04	3.5962e-06
9.0000e+01	2.2420e+04	2.2420e+04	3.5929e-06
9.5000e+01	2.2390e+04	2.2390e+04	3.5881e-06
1.0000e+02	2.2330e+04	2.2330e+04	3.5785e-06
1.5000e+02	2.1770e+04	2.1770e+04	3.4888e-06
2.0000e+02	2.0660e+04	2.0660e+04	3.3109e-06
2.5000e+02	1.9530e+04	1.9530e+04	3.1298e-06
3.0000e+02	1.8460e+04	1.8460e+04	2.9583e-06
3.5000e+02	1.7460e+04	1.7460e+04	2.7981e-06
4.0000e+02	1.6550e+04	1.6550e+04	2.6522e-06
4.5000e+02	1.5720e+04	1.5720e+04	2.5192e-06
5.0000e+02	1.4960e+04	1.4960e+04	2.3974e-06
5.5000e+02	1.4270e+04	1.4270e+04	2.2869e-06
6.0000e+02	1.3640e+04	1.3640e+04	2.1859e-06
6.5000e+02	1.3070e+04	1.3070e+04	2.0946e-06
7.0000e+02	1.2540e+04	1.2540e+04	2.0096e-06
7.5000e+02	1.2060e+04	1.2060e+04	1.9327e-06
8.0000e+02	1.1620e+04	1.1620e+04	1.8622e-06
8.5000e+02	1.1220e+04	1.1220e+04	1.7981e-06
9.0000e+02	1.0850e+04	1.0850e+04	1.7388e-06
9.5000e+02	1.0510e+04	1.0510e+04	1.6843e-06
1.0000e+03	1.0200e+04	1.0200e+04	1.6346e-06
1.5000e+03	8.1170e+03	8.1170e+03	1.3008e-06
2.0000e+03	6.8130e+03	6.8130e+03	1.0918e-06
2.5000e+03	5.8701e+03	5.8701e+03	9.4073e-07
3.0000e+03	5.1988e+03	5.1988e+03	8.3314e-07
3.5000e+03	4.6775e+03	4.6775e+03	7.4959e-07
4.0000e+03	4.2601e+03	4.2601e+03	6.8271e-07
4.5000e+03	3.9175e+03	3.9175e+03	6.2781e-07
5.0000e+03	3.6359e+03	3.6359e+03	5.8268e-07
5.5000e+03	3.4004e+03	3.4004e+03	5.4494e-07
6.0000e+03	3.2006e+03	3.2006e+03	5.1292e-07
6.5000e+03	3.0288e+03	3.0288e+03	4.8539e-07
7.0000e+03	2.8771e+03	2.8771e+03	4.6108e-07
7.5000e+03	2.7427e+03	2.7427e+03	4.3954e-07
8.0000e+03	2.6242e+03	2.6242e+03	4.2054e-07
8.5000e+03	2.5188e+03	2.5188e+03	4.0365e-07
9.0000e+03	2.4245e+03	2.4245e+03	3.8855e-07
9.5000e+03	2.3397e+03	2.3397e+03	3.7495e-07
1.0000e+04	2.2630e+03	2.2630e+03	3.6266e-07
1.5000e+04	1.7687e+03	1.7687e+03	2.8345e-07
2.0000e+04	1.5178e+03	1.5178e+03	2.4324e-07
2.5000e+04	1.3680e+03	1.3680e+03	2.1923e-07
3.0000e+04	1.2698e+03	1.2698e+03	2.0349e-07
3.5000e+04	1.2015e+03	1.2015e+03	1.9254e-07
4.0000e+04	1.1519e+03	1.1519e+03	1.8460e-07
4.5000e+04	1.1149e+03	1.1149e+03	1.7867e-07
5.0000e+04	1.0866e+03	1.0866e+03	1.7413e-07
5.5000e+04	1.0644e+03	1.0644e+03	1.7057e-07
6.0000e+04	1.0469e+03	1.0469e+03	1.6777e-07
6.5000e+04	1.0331e+03	1.0331e+03	1.6555e-07
7.0000e+04	1.0220e+03	1.0220e+03	1.6378e-07
7.5000e+04	1.0131e+03	1.0131e+03	1.6236e-07
8.0000e+04	1.0060e+03	1.0060e+03	1.6122e-07
8.5000e+04	1.0003e+03	1.0003e+03	1.6031e-07
9.0000e+04	9.9580e+02	9.9580e+02	1.5958e-07
9.5000e+04	9.9222e+02	9.9222e+02	1.5901e-07
1.0000e+05	9.8944e+02	9.8944e+02	1.5856e-07
1.5000e+05	9.8530e+02	9.8530e+02	1.5790e-07
2.0000e+05	9.9755e+02	9.9755e+02	1.5986e-07
2.5000e+05	1.0133e+03	1.0133e+03	1.6238e-07
3.0000e+05	1.0292e+03	1.0292e+03	1.6493e-07
3.5000e+05	1.0443e+03	1.0443e+03	1.6735e-07
4.0000e+05	1.0584e+03	1.0584e+03	1.6961e-07
4.5000e+05	1.0714e+03	1.0714e+03	1.7170e-07
5.0000e+05	1.0835e+03	1.0835e+03	1.7364e-07
5.5000e+05	1.0947e+03	1.0947e+03	1.7543e-07
6.0000e+05	1.1051e+03	1.1051e+03	1.7710e-07
6.5000e+05	1.1149e+03	1.1149e+03	1.7866e-07
7.0000e+05	1.1240e+03	1.1240e+03	1.8012e-07
7.5000e+05	1.1325e+03	1.1325e+03	1.8149e-07
8.0000e+05	1.1406e+03	1.1406e+03	1.8278e-07
8.5000e+05	1.1482e+03	1.1482e+03	1.8400e-07
9.0000e+05	1.1554e+03	1.1554e+03	1.8515e-07
9.5000e+05	1.1622e+03	1.1622e+03	1.8625e-07
1.0000e+06	1.1687e+03	1.1687e+03	1.8729e-07
1.5000e+06	1.2204e+03	1.2204e+03	1.9557e-07
2.0000e+06	1.2570e+03	1.2570e+03	2.0145e-07
2.5000e+06	1.2853e+03	1.2853e+03	2.0598e-07
3.0000e+06	1.3079e+03	1.3079e+03	2.0960e-07
3.5000e+06	1.3264e+03	1.3264e+03	2.1256e-07
4.0000e+06	1.3422e+03	1.3422e+03	2.1509e-07
4.5000e+06	1.3560e+03	1.3560e+03	2.1730e-07
5.0000e+06	1.3682e+03	1.3682e+03	2.1926e-07
5.5000e+06	1.3791e+03	1.3791e+03	2.2101e-07
6.0000e+06	1.3890e+03	1.3890e+03	2.2260e-07
6.5000e+06	1.3981e+03	1.3981e+03	2.2405e-07
7.0000e+06	1.4064e+03	1.4064e+03	2.2538e-07
7.5000e+06	1.4141e+03	1.4141e+03	2.2662e-07
8.0000e+06	1.4213e+03	1.4213e+03	2.2777e-07
8.5000e+06	1.4280e+03	1.4280e+03	2.2884e-07
9.0000e+06	1.4342e+03	1.4342e+03	2.2985e-07
9.5000e+06	1.4402e+03	1.4402e+03	2.3079e-07
1.0000e+07	1.4457e+03	1.4457e+03	2.3169e-07