Energy
(MeV)	Elec. Stopping Power
(MeV cm2 g-1)	Ionizing Dose*
(MeV g-1)	Ionizing Dose*
(Gy)
1.0000e-05	1.0010e+01	1.0010e+01	1.6042e-09
1.5000e-05	1.2260e+01	1.2260e+01	1.9647e-09
2.0000e-05	1.4160e+01	1.4160e+01	2.2692e-09
2.5000e-05	1.5830e+01	1.5830e+01	2.5369e-09
3.0000e-05	1.7340e+01	1.7340e+01	2.7788e-09
3.5000e-05	1.8730e+01	1.8730e+01	3.0016e-09
4.0000e-05	2.0020e+01	2.0020e+01	3.2083e-09
4.5000e-05	2.1240e+01	2.1240e+01	3.4038e-09
5.0000e-05	2.2390e+01	2.2390e+01	3.5881e-09
5.5000e-05	2.3480e+01	2.3480e+01	3.7628e-09
6.0000e-05	2.4520e+01	2.4520e+01	3.9295e-09
6.5000e-05	2.5520e+01	2.5520e+01	4.0897e-09
7.0000e-05	2.6490e+01	2.6490e+01	4.2452e-09
7.5000e-05	2.7420e+01	2.7420e+01	4.3942e-09
8.0000e-05	2.8320e+01	2.8320e+01	4.5385e-09
8.5000e-05	2.9190e+01	2.9190e+01	4.6779e-09
9.0000e-05	3.0030e+01	3.0030e+01	4.8125e-09
9.5000e-05	3.0860e+01	3.0860e+01	4.9455e-09
1.0000e-04	3.1660e+01	3.1660e+01	5.0737e-09
1.5000e-04	3.8770e+01	3.8770e+01	6.2131e-09
2.0000e-04	4.4770e+01	4.4770e+01	7.1747e-09
2.5000e-04	5.0050e+01	5.0050e+01	8.0208e-09
3.0000e-04	5.4830e+01	5.4830e+01	8.7869e-09
3.5000e-04	5.9230e+01	5.9230e+01	9.4920e-09
4.0000e-04	6.3320e+01	6.3320e+01	1.0147e-08
4.5000e-04	6.7160e+01	6.7160e+01	1.0763e-08
5.0000e-04	7.0790e+01	7.0790e+01	1.1345e-08
5.5000e-04	7.4240e+01	7.4240e+01	1.1897e-08
6.0000e-04	7.7540e+01	7.7540e+01	1.2426e-08
6.5000e-04	8.0710e+01	8.0710e+01	1.2934e-08
7.0000e-04	8.3760e+01	8.3760e+01	1.3423e-08
7.5000e-04	8.6700e+01	8.6700e+01	1.3894e-08
8.0000e-04	8.9540e+01	8.9540e+01	1.4349e-08
8.5000e-04	9.2300e+01	9.2300e+01	1.4792e-08
9.0000e-04	9.4970e+01	9.4970e+01	1.5220e-08
9.5000e-04	9.7580e+01	9.7580e+01	1.5638e-08
1.0000e-03	1.0010e+02	1.0010e+02	1.6042e-08
1.5000e-03	1.2260e+02	1.2260e+02	1.9647e-08
2.0000e-03	1.4160e+02	1.4160e+02	2.2692e-08
2.5000e-03	1.5830e+02	1.5830e+02	2.5369e-08
3.0000e-03	1.7340e+02	1.7340e+02	2.7788e-08
3.5000e-03	1.8730e+02	1.8730e+02	3.0016e-08
4.0000e-03	2.0020e+02	2.0020e+02	3.2083e-08
4.5000e-03	2.1240e+02	2.1240e+02	3.4038e-08
5.0000e-03	2.2390e+02	2.2390e+02	3.5881e-08
5.5000e-03	2.3480e+02	2.3480e+02	3.7628e-08
6.0000e-03	2.4520e+02	2.4520e+02	3.9295e-08
6.5000e-03	2.5520e+02	2.5520e+02	4.0897e-08
7.0000e-03	2.6490e+02	2.6490e+02	4.2452e-08
7.5000e-03	2.7420e+02	2.7420e+02	4.3942e-08
8.0000e-03	2.8320e+02	2.8320e+02	4.5385e-08
8.5000e-03	2.9190e+02	2.9190e+02	4.6779e-08
9.0000e-03	3.0030e+02	3.0030e+02	4.8125e-08
9.5000e-03	3.0860e+02	3.0860e+02	4.9455e-08
1.0000e-02	3.1660e+02	3.1660e+02	5.0737e-08
1.5000e-02	3.8770e+02	3.8770e+02	6.2131e-08
2.0000e-02	4.4770e+02	4.4770e+02	7.1747e-08
2.5000e-02	5.0060e+02	5.0060e+02	8.0224e-08
3.0000e-02	5.4830e+02	5.4830e+02	8.7869e-08
3.5000e-02	5.9230e+02	5.9230e+02	9.4920e-08
4.0000e-02	6.3320e+02	6.3320e+02	1.0147e-07
4.5000e-02	6.7160e+02	6.7160e+02	1.0763e-07
5.0000e-02	7.0790e+02	7.0790e+02	1.1345e-07
5.5000e-02	7.4250e+02	7.4250e+02	1.1899e-07
6.0000e-02	7.7550e+02	7.7550e+02	1.2428e-07
6.5000e-02	8.0710e+02	8.0710e+02	1.2934e-07
7.0000e-02	8.3760e+02	8.3760e+02	1.3423e-07
7.5000e-02	8.6700e+02	8.6700e+02	1.3894e-07
8.0000e-02	8.9540e+02	8.9540e+02	1.4349e-07
8.5000e-02	9.2300e+02	9.2300e+02	1.4792e-07
9.0000e-02	9.4980e+02	9.4980e+02	1.5221e-07
9.5000e-02	9.7580e+02	9.7580e+02	1.5638e-07
1.0000e-01	1.0010e+03	1.0010e+03	1.6042e-07
1.5000e-01	1.3780e+03	1.3780e+03	2.2083e-07
2.0000e-01	1.5170e+03	1.5170e+03	2.4311e-07
2.5000e-01	1.5960e+03	1.5960e+03	2.5577e-07
3.0000e-01	1.6780e+03	1.6780e+03	2.6891e-07
3.5000e-01	1.7700e+03	1.7700e+03	2.8365e-07
4.0000e-01	1.8710e+03	1.8710e+03	2.9984e-07
4.5000e-01	1.9800e+03	1.9800e+03	3.1731e-07
5.0000e-01	2.0930e+03	2.0930e+03	3.3542e-07
5.5000e-01	2.2080e+03	2.2080e+03	3.5385e-07
6.0000e-01	2.3240e+03	2.3240e+03	3.7244e-07
6.5000e-01	2.4400e+03	2.4400e+03	3.9103e-07
7.0000e-01	2.5550e+03	2.5550e+03	4.0946e-07
7.5000e-01	2.6690e+03	2.6690e+03	4.2772e-07
8.0000e-01	2.7820e+03	2.7820e+03	4.4583e-07
8.5000e-01	2.8930e+03	2.8930e+03	4.6362e-07
9.0000e-01	3.0040e+03	3.0040e+03	4.8141e-07
9.5000e-01	3.1120e+03	3.1120e+03	4.9872e-07
1.0000e+00	3.2200e+03	3.2200e+03	5.1603e-07
1.5000e+00	4.2370e+03	4.2370e+03	6.7901e-07
2.0000e+00	5.1920e+03	5.1920e+03	8.3205e-07
2.5000e+00	6.1210e+03	6.1210e+03	9.8093e-07
3.0000e+00	7.0350e+03	7.0350e+03	1.1274e-06
3.5000e+00	7.9380e+03	7.9380e+03	1.2721e-06
4.0000e+00	8.8280e+03	8.8280e+03	1.4147e-06
4.5000e+00	9.7030e+03	9.7030e+03	1.5550e-06
5.0000e+00	1.0560e+04	1.0560e+04	1.6923e-06
5.5000e+00	1.1400e+04	1.1400e+04	1.8269e-06
6.0000e+00	1.2210e+04	1.2210e+04	1.9567e-06
6.5000e+00	1.3000e+04	1.3000e+04	2.0833e-06
7.0000e+00	1.3760e+04	1.3760e+04	2.2051e-06
7.5000e+00	1.4500e+04	1.4500e+04	2.3237e-06
8.0000e+00	1.5210e+04	1.5210e+04	2.4375e-06
8.5000e+00	1.5890e+04	1.5890e+04	2.5465e-06
9.0000e+00	1.6550e+04	1.6550e+04	2.6522e-06
9.5000e+00	1.7180e+04	1.7180e+04	2.7532e-06
1.0000e+01	1.7780e+04	1.7780e+04	2.8494e-06
1.5000e+01	2.2540e+04	2.2540e+04	3.6122e-06
2.0000e+01	2.5590e+04	2.5590e+04	4.1010e-06
2.5000e+01	2.7620e+04	2.7620e+04	4.4263e-06
3.0000e+01	2.9010e+04	2.9010e+04	4.6490e-06
3.5000e+01	2.9970e+04	2.9970e+04	4.8029e-06
4.0000e+01	3.0640e+04	3.0640e+04	4.9103e-06
4.5000e+01	3.1100e+04	3.1100e+04	4.9840e-06
5.0000e+01	3.1410e+04	3.1410e+04	5.0337e-06
5.5000e+01	3.1600e+04	3.1600e+04	5.0641e-06
6.0000e+01	3.1710e+04	3.1710e+04	5.0817e-06
6.5000e+01	3.1750e+04	3.1750e+04	5.0881e-06
7.0000e+01	3.1740e+04	3.1740e+04	5.0865e-06
7.5000e+01	3.1690e+04	3.1690e+04	5.0785e-06
8.0000e+01	3.1610e+04	3.1610e+04	5.0657e-06
8.5000e+01	3.1500e+04	3.1500e+04	5.0481e-06
9.0000e+01	3.1370e+04	3.1370e+04	5.0272e-06
9.5000e+01	3.1230e+04	3.1230e+04	5.0048e-06
1.0000e+02	3.1070e+04	3.1070e+04	4.9792e-06
1.5000e+02	2.9520e+04	2.9520e+04	4.7308e-06
2.0000e+02	2.7730e+04	2.7730e+04	4.4439e-06
2.5000e+02	2.6090e+04	2.6090e+04	4.1811e-06
3.0000e+02	2.4620e+04	2.4620e+04	3.9455e-06
3.5000e+02	2.3300e+04	2.3300e+04	3.7340e-06
4.0000e+02	2.2110e+04	2.2110e+04	3.5433e-06
4.5000e+02	2.1030e+04	2.1030e+04	3.3702e-06
5.0000e+02	2.0050e+04	2.0050e+04	3.2131e-06
5.5000e+02	1.9150e+04	1.9150e+04	3.0689e-06
6.0000e+02	1.8320e+04	1.8320e+04	2.9359e-06
6.5000e+02	1.7550e+04	1.7550e+04	2.8125e-06
7.0000e+02	1.6840e+04	1.6840e+04	2.6987e-06
7.5000e+02	1.6190e+04	1.6190e+04	2.5946e-06
8.0000e+02	1.5570e+04	1.5570e+04	2.4952e-06
8.5000e+02	1.5000e+04	1.5000e+04	2.4038e-06
9.0000e+02	1.4470e+04	1.4470e+04	2.3189e-06
9.5000e+02	1.3970e+04	1.3970e+04	2.2388e-06
1.0000e+03	1.3510e+04	1.3510e+04	2.1651e-06
1.5000e+03	1.0260e+04	1.0260e+04	1.6442e-06
2.0000e+03	8.4440e+03	8.4440e+03	1.3532e-06
2.5000e+03	7.2318e+03	7.2318e+03	1.1589e-06
3.0000e+03	6.3733e+03	6.3733e+03	1.0214e-06
3.5000e+03	5.7129e+03	5.7129e+03	9.1553e-07
4.0000e+03	5.1883e+03	5.1883e+03	8.3146e-07
4.5000e+03	4.7599e+03	4.7599e+03	7.6281e-07
5.0000e+03	4.4093e+03	4.4093e+03	7.0662e-07
5.5000e+03	4.1169e+03	4.1169e+03	6.5977e-07
6.0000e+03	3.8694e+03	3.8694e+03	6.2009e-07
6.5000e+03	3.6572e+03	3.6572e+03	5.8609e-07
7.0000e+03	3.4707e+03	3.4707e+03	5.5620e-07
7.5000e+03	3.3059e+03	3.3059e+03	5.2980e-07
8.0000e+03	3.1607e+03	3.1607e+03	5.0653e-07
8.5000e+03	3.0318e+03	3.0318e+03	4.8586e-07
9.0000e+03	2.9165e+03	2.9165e+03	4.6739e-07
9.5000e+03	2.8129e+03	2.8129e+03	4.5078e-07
1.0000e+04	2.7192e+03	2.7192e+03	4.3577e-07
1.5000e+04	2.1170e+03	2.1170e+03	3.3926e-07
2.0000e+04	1.8122e+03	1.8122e+03	2.9041e-07
2.5000e+04	1.6304e+03	1.6304e+03	2.6128e-07
3.0000e+04	1.5112e+03	1.5112e+03	2.4219e-07
3.5000e+04	1.4283e+03	1.4283e+03	2.2890e-07
4.0000e+04	1.3686e+03	1.3686e+03	2.1933e-07
4.5000e+04	1.3244e+03	1.3244e+03	2.1224e-07
5.0000e+04	1.2905e+03	1.2905e+03	2.0682e-07
5.5000e+04	1.2642e+03	1.2642e+03	2.0260e-07
6.0000e+04	1.2435e+03	1.2435e+03	1.9927e-07
6.5000e+04	1.2270e+03	1.2270e+03	1.9663e-07
7.0000e+04	1.2138e+03	1.2138e+03	1.9452e-07
7.5000e+04	1.2032e+03	1.2032e+03	1.9282e-07
8.0000e+04	1.1947e+03	1.1947e+03	1.9145e-07
8.5000e+04	1.1878e+03	1.1878e+03	1.9036e-07
9.0000e+04	1.1824e+03	1.1824e+03	1.8948e-07
9.5000e+04	1.1780e+03	1.1780e+03	1.8879e-07
1.0000e+05	1.1746e+03	1.1746e+03	1.8824e-07
1.5000e+05	1.1687e+03	1.1687e+03	1.8730e-07
2.0000e+05	1.1824e+03	1.1824e+03	1.8948e-07
2.5000e+05	1.2002e+03	1.2002e+03	1.9235e-07
3.0000e+05	1.2184e+03	1.2184e+03	1.9526e-07
3.5000e+05	1.2358e+03	1.2358e+03	1.9804e-07
4.0000e+05	1.2520e+03	1.2520e+03	2.0064e-07
4.5000e+05	1.2670e+03	1.2670e+03	2.0304e-07
5.0000e+05	1.2809e+03	1.2809e+03	2.0527e-07
5.5000e+05	1.2938e+03	1.2938e+03	2.0735e-07
6.0000e+05	1.3059e+03	1.3059e+03	2.0928e-07
6.5000e+05	1.3171e+03	1.3171e+03	2.1108e-07
7.0000e+05	1.3276e+03	1.3276e+03	2.1276e-07
7.5000e+05	1.3375e+03	1.3375e+03	2.1435e-07
8.0000e+05	1.3469e+03	1.3469e+03	2.1584e-07
8.5000e+05	1.3557e+03	1.3557e+03	2.1726e-07
9.0000e+05	1.3640e+03	1.3640e+03	2.1860e-07
9.5000e+05	1.3720e+03	1.3720e+03	2.1987e-07
1.0000e+06	1.3795e+03	1.3795e+03	2.2108e-07
1.5000e+06	1.4397e+03	1.4397e+03	2.3073e-07
2.0000e+06	1.4827e+03	1.4827e+03	2.3761e-07
2.5000e+06	1.5160e+03	1.5160e+03	2.4295e-07
3.0000e+06	1.5427e+03	1.5427e+03	2.4723e-07
3.5000e+06	1.5637e+03	1.5637e+03	2.5060e-07
4.0000e+06	1.5816e+03	1.5816e+03	2.5347e-07
4.5000e+06	1.5972e+03	1.5972e+03	2.5597e-07
5.0000e+06	1.6110e+03	1.6110e+03	2.5818e-07
5.5000e+06	1.6234e+03	1.6234e+03	2.6016e-07
6.0000e+06	1.6346e+03	1.6346e+03	2.6195e-07
6.5000e+06	1.6448e+03	1.6448e+03	2.6358e-07
7.0000e+06	1.6541e+03	1.6541e+03	2.6508e-07
7.5000e+06	1.6628e+03	1.6628e+03	2.6647e-07
8.0000e+06	1.6708e+03	1.6708e+03	2.6776e-07
8.5000e+06	1.6784e+03	1.6784e+03	2.6897e-07
9.0000e+06	1.6854e+03	1.6854e+03	2.7010e-07
9.5000e+06	1.6920e+03	1.6920e+03	2.7116e-07
1.0000e+07	1.6983e+03	1.6983e+03	2.7216e-07