'*',    13,     3,     4,     0,     5,     5,    46,     2
'OMNIDIRECTIONAL FLUENCE ANALYSIS'
'MULASSIS ml-v01-19'
'geant4-09-02-ref-00 (19-December-2008)'
'FLU_BDY', 1, 2, ' '
'FLU_PAR, -1, proton  '
'FLU_AMN', 1, 0., 'deg'
'FLU_AMX', 1, 90., 'deg'
'Elo','keV', 1, ' Lower edge of energy    bin '
'Eup','keV', 1, ' Upper edge of energy    bin '
'Emean','keV', 1, ' Mean energy of bin '
'Value','particles/cm2/bin',1,             'Fluence/flux'
'Error','particles/cm2/bin',1,'Error in   fluence/flux'
  0.000000E+00,   4.000000E+01,   2.000000E+01,   3.280347E+05,   0.000000E+00
  4.000000E+01,   1.000000E+02,   7.000000E+01,   4.920520E+05,   0.000000E+00
  1.000000E+02,   2.000000E+02,   1.500000E+02,   8.200867E+05,   0.000000E+00
  2.000000E+02,   3.000000E+02,   2.500000E+02,   8.200867E+05,   0.000000E+00
  3.000000E+02,   4.000000E+02,   3.500000E+02,   8.200867E+05,   0.000000E+00
  4.000000E+02,   5.000000E+02,   4.500000E+02,   8.200867E+05,   0.000000E+00
  5.000000E+02,   6.000000E+02,   5.500000E+02,   8.200867E+05,   0.000000E+00
  6.000000E+02,   7.000000E+02,   6.500000E+02,   8.200867E+05,   0.000000E+00
  7.000000E+02,   8.000000E+02,   7.500000E+02,   8.200867E+05,   0.000000E+00
  8.000000E+02,   1.000000E+03,   9.000000E+02,   1.726636E+06,   0.000000E+00
  1.000000E+03,   1.250000E+03,   1.125000E+03,   2.285988E+06,   0.000000E+00
  1.250000E+03,   1.500000E+03,   1.375000E+03,   2.436846E+06,   0.000000E+00
  1.500000E+03,   1.750000E+03,   1.625000E+03,   2.537321E+06,   0.000000E+00
  1.750000E+03,   2.000000E+03,   1.875000E+03,   2.791312E+06,   0.000000E+00
  2.000000E+03,   2.250000E+03,   2.125000E+03,   2.992127E+06,   0.000000E+00
  2.250000E+03,   2.500000E+03,   2.375000E+03,   3.144985E+06,   0.000000E+00
  2.500000E+03,   2.750000E+03,   2.625000E+03,   3.388127E+06,   0.000000E+00
  2.750000E+03,   3.000000E+03,   2.875000E+03,   3.724026E+06,   0.000000E+00
  3.000000E+03,   3.250000E+03,   3.125000E+03,   3.858459E+06,   0.000000E+00
  3.250000E+03,   3.500000E+03,   3.375000E+03,   4.017364E+06,   0.000000E+00
  3.500000E+03,   3.750000E+03,   3.625000E+03,   4.255646E+06,   0.000000E+00
  3.750000E+03,   4.000000E+03,   3.875000E+03,   4.575577E+06,   0.000000E+00
  4.000000E+03,   4.250000E+03,   4.125000E+03,   4.809034E+06,   0.000000E+00
  4.250000E+03,   4.500000E+03,   4.375000E+03,   4.820424E+06,   0.000000E+00
  4.500000E+03,   4.750000E+03,   4.625000E+03,   5.198312E+06,   0.000000E+00
  4.750000E+03,   5.000000E+03,   4.875000E+03,   5.410392E+06,   0.000000E+00
  5.000000E+03,   5.500000E+03,   5.250000E+03,   1.147353E+07,   0.000000E+00
  5.500000E+03,   6.000000E+03,   5.750000E+03,   1.236842E+07,   0.000000E+00
  6.000000E+03,   6.500000E+03,   6.250000E+03,   1.319327E+07,   0.000000E+00
  6.500000E+03,   7.000000E+03,   6.750000E+03,   1.420637E+07,   0.000000E+00
  7.000000E+03,   1.000000E+04,   8.500000E+03,   1.058578E+08,   0.000000E+00
  1.000000E+04,   2.000000E+04,   1.500000E+04,   5.760342E+08,   0.000000E+00
  2.000000E+04,   3.000000E+04,   2.500000E+04,   8.709432E+08,   0.000000E+00
  3.000000E+04,   4.000000E+04,   3.500000E+04,   1.082355E+09,   0.000000E+00
  4.000000E+04,   5.000000E+04,   4.500000E+04,   1.231690E+09,   0.000000E+00
  5.000000E+04,   6.000000E+04,   5.500000E+04,   1.289148E+09,   0.000000E+00
  6.000000E+04,   7.000000E+04,   6.500000E+04,   1.438040E+09,   0.000000E+00
  7.000000E+04,   8.000000E+04,   7.500000E+04,   1.364611E+09,   0.000000E+00
  8.000000E+04,   1.000000E+05,   9.000000E+04,   2.470335E+09,   0.000000E+00
  1.000000E+05,   1.500000E+05,   1.250000E+05,   3.713122E+09,   0.000000E+00
  1.500000E+05,   2.000000E+05,   1.750000E+05,   2.359675E+09,   0.000000E+00
  2.000000E+05,   3.000000E+05,   2.500000E+05,   2.393508E+09,   0.000000E+00
  3.000000E+05,   4.000000E+05,   3.500000E+05,   6.745222E+08,   0.000000E+00
  4.000000E+05,   5.000000E+05,   4.500000E+05,   6.315444E+05,   0.000000E+00
  5.000000E+05,   8.000000E+05,   6.500000E+05,   2.257556E+05,   0.000000E+00
  8.000000E+05,   1.000000E+06,   0.000000E+00,   0.000000E+00,   0.000000E+00
'End of Block'
'*',    13,     3,     4,     0,     5,     5,    46,     1
'OMNIDIRECTIONAL FLUENCE ANALYSIS'
'MULASSIS ml-v01-19'
'geant4-09-02-ref-00 (19-December-2008)'
'FLU_BDY', 1, 2, ' '
'FLU_PAR, -1, e-      '
'FLU_AMN', 1, 0., 'deg'
'FLU_AMX', 1, 90., 'deg'
'Elo','keV', 1, ' Lower edge of energy    bin '
'Eup','keV', 1, ' Upper edge of energy    bin '
'Emean','keV', 1, ' Mean energy of bin '
'Value','particles/cm2/bin',1,             'Fluence/flux'
'Error','particles/cm2/bin',1,'Error in   fluence/flux'
  0.000000E+00,   4.000000E+01,   2.000000E+01,   1.684916E+09,   0.000000E+00
  4.000000E+01,   1.000000E+02,   7.000000E+01,   1.655737E+09,   0.000000E+00
  1.000000E+02,   2.000000E+02,   1.500000E+02,   2.511664E+09,   0.000000E+00
  2.000000E+02,   3.000000E+02,   2.500000E+02,   2.503643E+09,   0.000000E+00
  3.000000E+02,   4.000000E+02,   3.500000E+02,   2.364594E+09,   0.000000E+00
  4.000000E+02,   5.000000E+02,   4.500000E+02,   2.160642E+09,   0.000000E+00
  5.000000E+02,   6.000000E+02,   5.500000E+02,   1.945767E+09,   0.000000E+00
  6.000000E+02,   7.000000E+02,   6.500000E+02,   1.725218E+09,   0.000000E+00
  7.000000E+02,   8.000000E+02,   7.500000E+02,   1.500652E+09,   0.000000E+00
  8.000000E+02,   1.000000E+03,   9.000000E+02,   2.375363E+09,   0.000000E+00
  1.000000E+03,   1.250000E+03,   1.125000E+03,   1.926174E+09,   0.000000E+00
  1.250000E+03,   1.500000E+03,   1.375000E+03,   1.044830E+09,   0.000000E+00
  1.500000E+03,   1.750000E+03,   1.625000E+03,   5.760738E+08,   0.000000E+00
  1.750000E+03,   2.000000E+03,   1.875000E+03,   3.312671E+08,   0.000000E+00
  2.000000E+03,   2.250000E+03,   2.125000E+03,   1.999853E+08,   0.000000E+00
  2.250000E+03,   2.500000E+03,   2.375000E+03,   1.197982E+08,   0.000000E+00
  2.500000E+03,   2.750000E+03,   2.625000E+03,   6.997131E+07,   0.000000E+00
  2.750000E+03,   3.000000E+03,   2.875000E+03,   3.877897E+07,   0.000000E+00
  3.000000E+03,   3.250000E+03,   3.125000E+03,   2.060643E+07,   0.000000E+00
  3.250000E+03,   3.500000E+03,   3.375000E+03,   1.063374E+07,   0.000000E+00
  3.500000E+03,   3.750000E+03,   3.625000E+03,   5.126111E+06,   0.000000E+00
  3.750000E+03,   4.000000E+03,   3.875000E+03,   2.399099E+06,   0.000000E+00
  4.000000E+03,   4.250000E+03,   4.125000E+03,   1.054652E+06,   0.000000E+00
  4.250000E+03,   4.500000E+03,   4.375000E+03,   3.667870E+05,   0.000000E+00
  4.500000E+03,   4.750000E+03,   4.625000E+03,   9.662075E+04,   0.000000E+00
  4.750000E+03,   5.000000E+03,   4.875000E+03,   2.319072E+04,   0.000000E+00
  5.000000E+03,   5.500000E+03,   5.250000E+03,   3.129700E+04,   0.000000E+00
  5.500000E+03,   6.000000E+03,   5.750000E+03,   2.997736E+04,   0.000000E+00
  6.000000E+03,   6.500000E+03,   6.250000E+03,   2.995742E+04,   0.000000E+00
  6.500000E+03,   7.000000E+03,   6.750000E+03,   2.995742E+04,   0.000000E+00
  7.000000E+03,   1.000000E+04,   8.500000E+03,   1.797445E+05,   0.000000E+00
  1.000000E+04,   2.000000E+04,   1.500000E+04,   5.991485E+05,   0.000000E+00
  2.000000E+04,   3.000000E+04,   2.500000E+04,   5.991485E+05,   0.000000E+00
  3.000000E+04,   4.000000E+04,   3.500000E+04,   5.254241E+05,   0.000000E+00
  4.000000E+04,   5.000000E+04,   4.500000E+04,   4.111423E+05,   0.000000E+00
  5.000000E+04,   6.000000E+04,   5.500000E+04,   3.300563E+05,   0.000000E+00
  6.000000E+04,   7.000000E+04,   6.500000E+04,   2.747189E+05,   0.000000E+00
  7.000000E+04,   8.000000E+04,   7.500000E+04,   2.284278E+05,   0.000000E+00
  8.000000E+04,   1.000000E+05,   9.000000E+04,   3.686778E+05,   0.000000E+00
  1.000000E+05,   1.500000E+05,   1.250000E+05,   5.215854E+05,   0.000000E+00
  1.500000E+05,   2.000000E+05,   1.750000E+05,   2.052824E+05,   0.000000E+00
  2.000000E+05,   3.000000E+05,   2.500000E+05,   1.080082E+05,   0.000000E+00
  3.000000E+05,   4.000000E+05,   3.500000E+05,   2.004804E+04,   0.000000E+00
  4.000000E+05,   5.000000E+05,   4.500000E+05,   3.398600E+01,   0.000000E+00
  5.000000E+05,   8.000000E+05,   6.500000E+05,   4.381467E+00,   0.000000E+00
  8.000000E+05,   1.000000E+06,   0.000000E+00,   0.000000E+00,   0.000000E+00
'End of Block'
'*',    13,     3,     4,     0,     5,     5,    46,    -1
'OMNIDIRECTIONAL FLUENCE ANALYSIS'
'MULASSIS ml-v01-19'
'geant4-09-02-ref-00 (19-December-2008)'
'FLU_BDY', 1, 2, ' '
'FLU_PAR, -1, neutron '
'FLU_AMN', 1, 0., 'deg'
'FLU_AMX', 1, 90., 'deg'
'Elo','keV', 1, ' Lower edge of energy    bin '
'Eup','keV', 1, ' Upper edge of energy    bin '
'Emean','keV', 1, ' Mean energy of bin '
'Value','particles/cm2/bin',1,             'Fluence/flux'
'Error','particles/cm2/bin',1,'Error in   fluence/flux'
  0.000000E+00,   4.000000E+01,   2.000000E+01,   1.378307E+06,   0.000000E+00
  4.000000E+01,   1.000000E+02,   7.000000E+01,   2.067461E+06,   0.000000E+00
  1.000000E+02,   2.000000E+02,   1.500000E+02,   3.445768E+06,   0.000000E+00
  2.000000E+02,   3.000000E+02,   2.500000E+02,   3.445768E+06,   0.000000E+00
  3.000000E+02,   4.000000E+02,   3.500000E+02,   3.445768E+06,   0.000000E+00
  4.000000E+02,   5.000000E+02,   4.500000E+02,   3.445768E+06,   0.000000E+00
  5.000000E+02,   6.000000E+02,   5.500000E+02,   3.445768E+06,   0.000000E+00
  6.000000E+02,   7.000000E+02,   6.500000E+02,   3.445768E+06,   0.000000E+00
  7.000000E+02,   8.000000E+02,   7.500000E+02,   3.445768E+06,   0.000000E+00
  8.000000E+02,   1.000000E+03,   9.000000E+02,   6.881248E+06,   0.000000E+00
  1.000000E+03,   1.250000E+03,   1.125000E+03,   8.586365E+06,   0.000000E+00
  1.250000E+03,   1.500000E+03,   1.375000E+03,   8.524623E+06,   0.000000E+00
  1.500000E+03,   1.750000E+03,   1.625000E+03,   8.465965E+06,   0.000000E+00
  1.750000E+03,   2.000000E+03,   1.875000E+03,   8.370594E+06,   0.000000E+00
  2.000000E+03,   2.250000E+03,   2.125000E+03,   8.252062E+06,   0.000000E+00
  2.250000E+03,   2.500000E+03,   2.375000E+03,   8.121190E+06,   0.000000E+00
  2.500000E+03,   2.750000E+03,   2.625000E+03,   7.979060E+06,   0.000000E+00
  2.750000E+03,   3.000000E+03,   2.875000E+03,   7.802467E+06,   0.000000E+00
  3.000000E+03,   3.250000E+03,   3.125000E+03,   7.644744E+06,   0.000000E+00
  3.250000E+03,   3.500000E+03,   3.375000E+03,   7.528863E+06,   0.000000E+00
  3.500000E+03,   3.750000E+03,   3.625000E+03,   7.274681E+06,   0.000000E+00
  3.750000E+03,   4.000000E+03,   3.875000E+03,   7.157116E+06,   0.000000E+00
  4.000000E+03,   4.250000E+03,   4.125000E+03,   6.845205E+06,   0.000000E+00
  4.250000E+03,   4.500000E+03,   4.375000E+03,   6.815139E+06,   0.000000E+00
  4.500000E+03,   4.750000E+03,   4.625000E+03,   6.453787E+06,   0.000000E+00
  4.750000E+03,   5.000000E+03,   4.875000E+03,   6.380170E+06,   0.000000E+00
  5.000000E+03,   5.500000E+03,   5.250000E+03,   1.206136E+07,   0.000000E+00
  5.500000E+03,   6.000000E+03,   5.750000E+03,   1.137920E+07,   0.000000E+00
  6.000000E+03,   6.500000E+03,   6.250000E+03,   1.068912E+07,   0.000000E+00
  6.500000E+03,   7.000000E+03,   6.750000E+03,   1.013254E+07,   0.000000E+00
  7.000000E+03,   1.000000E+04,   8.500000E+03,   4.913951E+07,   0.000000E+00
  1.000000E+04,   2.000000E+04,   1.500000E+04,   8.896622E+07,   0.000000E+00
  2.000000E+04,   3.000000E+04,   2.500000E+04,   4.638115E+07,   0.000000E+00
  3.000000E+04,   4.000000E+04,   3.500000E+04,   3.188977E+07,   0.000000E+00
  4.000000E+04,   5.000000E+04,   4.500000E+04,   2.359012E+07,   0.000000E+00
  5.000000E+04,   6.000000E+04,   5.500000E+04,   1.817199E+07,   0.000000E+00
  6.000000E+04,   7.000000E+04,   6.500000E+04,   1.432856E+07,   0.000000E+00
  7.000000E+04,   8.000000E+04,   7.500000E+04,   1.151646E+07,   0.000000E+00
  8.000000E+04,   1.000000E+05,   9.000000E+04,   1.721136E+07,   0.000000E+00
  1.000000E+05,   1.500000E+05,   1.250000E+05,   2.515408E+07,   0.000000E+00
  1.500000E+05,   2.000000E+05,   1.750000E+05,   1.204052E+07,   0.000000E+00
  2.000000E+05,   3.000000E+05,   2.500000E+05,   7.135115E+06,   0.000000E+00
  3.000000E+05,   4.000000E+05,   3.500000E+05,   8.606788E+05,   0.000000E+00
  4.000000E+05,   5.000000E+05,   4.500000E+05,   1.114951E+03,   0.000000E+00
  5.000000E+05,   8.000000E+05,   6.500000E+05,   7.411065E+01,   0.000000E+00
  8.000000E+05,   1.000000E+06,   0.000000E+00,   0.000000E+00,   0.000000E+00
'End of File'
