'*',    13,     3,     4,     0,     5,     5,    46,     2
'OMNIDIRECTIONAL FLUENCE ANALYSIS'
'MULASSIS ml-v01-19'
'geant4-09-02-ref-00 (19-December-2008)'
'FLU_BDY', 1, 2, ' '
'FLU_PAR, -1, proton  '
'FLU_AMN', 1, 0., 'deg'
'FLU_AMX', 1, 90., 'deg'
'Elo','keV', 1, ' Lower edge of energy    bin '
'Eup','keV', 1, ' Upper edge of energy    bin '
'Emean','keV', 1, ' Mean energy of bin '
'Value','particles/cm2/bin',1,             'Fluence/flux'
'Error','particles/cm2/bin',1,'Error in   fluence/flux'
  0.000000E+00,   4.000000E+01,   2.000000E+01,   4.113674E+04,   0.000000E+00
  4.000000E+01,   1.000000E+02,   7.000000E+01,   6.170511E+04,   0.000000E+00
  1.000000E+02,   2.000000E+02,   1.500000E+02,   1.028418E+05,   0.000000E+00
  2.000000E+02,   3.000000E+02,   2.500000E+02,   1.028418E+05,   0.000000E+00
  3.000000E+02,   4.000000E+02,   3.500000E+02,   1.028418E+05,   0.000000E+00
  4.000000E+02,   5.000000E+02,   4.500000E+02,   1.028418E+05,   0.000000E+00
  5.000000E+02,   6.000000E+02,   5.500000E+02,   1.028418E+05,   0.000000E+00
  6.000000E+02,   7.000000E+02,   6.500000E+02,   1.028418E+05,   0.000000E+00
  7.000000E+02,   8.000000E+02,   7.500000E+02,   1.028418E+05,   0.000000E+00
  8.000000E+02,   1.000000E+03,   9.000000E+02,   2.056837E+05,   0.000000E+00
  1.000000E+03,   1.250000E+03,   1.125000E+03,   2.571046E+05,   0.000000E+00
  1.250000E+03,   1.500000E+03,   1.375000E+03,   2.891028E+05,   0.000000E+00
  1.500000E+03,   1.750000E+03,   1.625000E+03,   3.425539E+05,   0.000000E+00
  1.750000E+03,   2.000000E+03,   1.875000E+03,   3.623879E+05,   0.000000E+00
  2.000000E+03,   2.250000E+03,   2.125000E+03,   4.067572E+05,   0.000000E+00
  2.250000E+03,   2.500000E+03,   2.375000E+03,   4.195188E+05,   0.000000E+00
  2.500000E+03,   2.750000E+03,   2.625000E+03,   4.473998E+05,   0.000000E+00
  2.750000E+03,   3.000000E+03,   2.875000E+03,   5.127082E+05,   0.000000E+00
  3.000000E+03,   3.250000E+03,   3.125000E+03,   5.523492E+05,   0.000000E+00
  3.250000E+03,   3.500000E+03,   3.375000E+03,   5.566109E+05,   0.000000E+00
  3.500000E+03,   3.750000E+03,   3.625000E+03,   5.746582E+05,   0.000000E+00
  3.750000E+03,   4.000000E+03,   3.875000E+03,   6.100045E+05,   0.000000E+00
  4.000000E+03,   4.250000E+03,   4.125000E+03,   6.572686E+05,   0.000000E+00
  4.250000E+03,   4.500000E+03,   4.375000E+03,   7.204153E+05,   0.000000E+00
  4.500000E+03,   4.750000E+03,   4.625000E+03,   7.276319E+05,   0.000000E+00
  4.750000E+03,   5.000000E+03,   4.875000E+03,   7.553873E+05,   0.000000E+00
  5.000000E+03,   5.500000E+03,   5.250000E+03,   1.546175E+06,   0.000000E+00
  5.500000E+03,   6.000000E+03,   5.750000E+03,   1.736107E+06,   0.000000E+00
  6.000000E+03,   6.500000E+03,   6.250000E+03,   1.878228E+06,   0.000000E+00
  6.500000E+03,   7.000000E+03,   6.750000E+03,   1.889274E+06,   0.000000E+00
  7.000000E+03,   1.000000E+04,   8.500000E+03,   1.446215E+07,   0.000000E+00
  1.000000E+04,   2.000000E+04,   1.500000E+04,   9.154237E+07,   0.000000E+00
  2.000000E+04,   3.000000E+04,   2.500000E+04,   1.097246E+08,   0.000000E+00
  3.000000E+04,   4.000000E+04,   3.500000E+04,   1.006733E+08,   0.000000E+00
  4.000000E+04,   5.000000E+04,   4.500000E+04,   9.477787E+07,   0.000000E+00
  5.000000E+04,   6.000000E+04,   5.500000E+04,   8.414365E+07,   0.000000E+00
  6.000000E+04,   7.000000E+04,   6.500000E+04,   7.017201E+07,   0.000000E+00
  7.000000E+04,   8.000000E+04,   7.500000E+04,   5.422084E+07,   0.000000E+00
  8.000000E+04,   1.000000E+05,   9.000000E+04,   6.702370E+07,   0.000000E+00
  1.000000E+05,   1.500000E+05,   1.250000E+05,   8.102675E+07,   0.000000E+00
  1.500000E+05,   2.000000E+05,   1.750000E+05,   3.274636E+07,   0.000000E+00
  2.000000E+05,   3.000000E+05,   2.500000E+05,   2.997966E+07,   0.000000E+00
  3.000000E+05,   4.000000E+05,   3.500000E+05,   8.299557E+06,   0.000000E+00
  4.000000E+05,   5.000000E+05,   4.500000E+05,   2.481919E+06,   0.000000E+00
  5.000000E+05,   8.000000E+05,   6.500000E+05,   7.824872E+05,   0.000000E+00
  8.000000E+05,   1.000000E+06,   0.000000E+00,   0.000000E+00,   0.000000E+00
'End of Block'
'*',    13,     3,     4,     0,     5,     5,    46,     1
'OMNIDIRECTIONAL FLUENCE ANALYSIS'
'MULASSIS ml-v01-19'
'geant4-09-02-ref-00 (19-December-2008)'
'FLU_BDY', 1, 2, ' '
'FLU_PAR, -1, e-      '
'FLU_AMN', 1, 0., 'deg'
'FLU_AMX', 1, 90., 'deg'
'Elo','keV', 1, ' Lower edge of energy    bin '
'Eup','keV', 1, ' Upper edge of energy    bin '
'Emean','keV', 1, ' Mean energy of bin '
'Value','particles/cm2/bin',1,             'Fluence/flux'
'Error','particles/cm2/bin',1,'Error in   fluence/flux'
  0.000000E+00,   4.000000E+01,   2.000000E+01,   3.164369E+08,   0.000000E+00
  4.000000E+01,   1.000000E+02,   7.000000E+01,   2.688677E+08,   0.000000E+00
  1.000000E+02,   2.000000E+02,   1.500000E+02,   3.535963E+08,   0.000000E+00
  2.000000E+02,   3.000000E+02,   2.500000E+02,   3.857165E+08,   0.000000E+00
  3.000000E+02,   4.000000E+02,   3.500000E+02,   3.862604E+08,   0.000000E+00
  4.000000E+02,   5.000000E+02,   4.500000E+02,   3.841538E+08,   0.000000E+00
  5.000000E+02,   6.000000E+02,   5.500000E+02,   3.570613E+08,   0.000000E+00
  6.000000E+02,   7.000000E+02,   6.500000E+02,   3.213114E+08,   0.000000E+00
  7.000000E+02,   8.000000E+02,   7.500000E+02,   2.818833E+08,   0.000000E+00
  8.000000E+02,   1.000000E+03,   9.000000E+02,   4.434115E+08,   0.000000E+00
  1.000000E+03,   1.250000E+03,   1.125000E+03,   3.602784E+08,   0.000000E+00
  1.250000E+03,   1.500000E+03,   1.375000E+03,   2.130408E+08,   0.000000E+00
  1.500000E+03,   1.750000E+03,   1.625000E+03,   8.836076E+07,   0.000000E+00
  1.750000E+03,   2.000000E+03,   1.875000E+03,   1.871644E+07,   0.000000E+00
  2.000000E+03,   2.250000E+03,   2.125000E+03,   2.347205E+06,   0.000000E+00
  2.250000E+03,   2.500000E+03,   2.375000E+03,   3.732747E+05,   0.000000E+00
  2.500000E+03,   2.750000E+03,   2.625000E+03,   3.719918E+05,   0.000000E+00
  2.750000E+03,   3.000000E+03,   2.875000E+03,   3.719303E+05,   0.000000E+00
  3.000000E+03,   3.250000E+03,   3.125000E+03,   3.718890E+05,   0.000000E+00
  3.250000E+03,   3.500000E+03,   3.375000E+03,   3.240393E+05,   0.000000E+00
  3.500000E+03,   3.750000E+03,   3.625000E+03,   2.160397E+05,   0.000000E+00
  3.750000E+03,   4.000000E+03,   3.875000E+03,   1.285837E+05,   0.000000E+00
  4.000000E+03,   4.250000E+03,   4.125000E+03,   7.174239E+04,   0.000000E+00
  4.250000E+03,   4.500000E+03,   4.375000E+03,   3.812966E+04,   0.000000E+00
  4.500000E+03,   4.750000E+03,   4.625000E+03,   1.412382E+04,   0.000000E+00
  4.750000E+03,   5.000000E+03,   4.875000E+03,   3.996655E+03,   0.000000E+00
  5.000000E+03,   5.500000E+03,   5.250000E+03,   3.522927E+03,   0.000000E+00
  5.500000E+03,   6.000000E+03,   5.750000E+03,   3.481816E+03,   0.000000E+00
  6.000000E+03,   6.500000E+03,   6.250000E+03,   3.481816E+03,   0.000000E+00
  6.500000E+03,   7.000000E+03,   6.750000E+03,   3.481816E+03,   0.000000E+00
  7.000000E+03,   1.000000E+04,   8.500000E+03,   2.089090E+04,   0.000000E+00
  1.000000E+04,   2.000000E+04,   1.500000E+04,   6.963632E+04,   0.000000E+00
  2.000000E+04,   3.000000E+04,   2.500000E+04,   6.963632E+04,   0.000000E+00
  3.000000E+04,   4.000000E+04,   3.500000E+04,   6.963632E+04,   0.000000E+00
  4.000000E+04,   5.000000E+04,   4.500000E+04,   6.407543E+04,   0.000000E+00
  5.000000E+04,   6.000000E+04,   5.500000E+04,   3.706400E+04,   0.000000E+00
  6.000000E+04,   7.000000E+04,   6.500000E+04,   2.258322E+04,   0.000000E+00
  7.000000E+04,   8.000000E+04,   7.500000E+04,   1.497283E+04,   0.000000E+00
  8.000000E+04,   1.000000E+05,   9.000000E+04,   2.020852E+04,   0.000000E+00
  1.000000E+05,   1.500000E+05,   1.250000E+05,   2.427125E+04,   0.000000E+00
  1.500000E+05,   2.000000E+05,   1.750000E+05,   7.911037E+03,   0.000000E+00
  2.000000E+05,   3.000000E+05,   2.500000E+05,   4.306166E+03,   0.000000E+00
  3.000000E+05,   4.000000E+05,   3.500000E+05,   1.073470E+03,   0.000000E+00
  4.000000E+05,   5.000000E+05,   4.500000E+05,   3.072086E+02,   0.000000E+00
  5.000000E+05,   8.000000E+05,   6.500000E+05,   3.966083E+01,   0.000000E+00
  8.000000E+05,   1.000000E+06,   0.000000E+00,   0.000000E+00,   0.000000E+00
'End of Block'
'*',    13,     3,     4,     0,     5,     5,    46,    -1
'OMNIDIRECTIONAL FLUENCE ANALYSIS'
'MULASSIS ml-v01-19'
'geant4-09-02-ref-00 (19-December-2008)'
'FLU_BDY', 1, 2, ' '
'FLU_PAR, -1, neutron '
'FLU_AMN', 1, 0., 'deg'
'FLU_AMX', 1, 90., 'deg'
'Elo','keV', 1, ' Lower edge of energy    bin '
'Eup','keV', 1, ' Upper edge of energy    bin '
'Emean','keV', 1, ' Mean energy of bin '
'Value','particles/cm2/bin',1,             'Fluence/flux'
'Error','particles/cm2/bin',1,'Error in   fluence/flux'
  0.000000E+00,   4.000000E+01,   2.000000E+01,   1.698220E+05,   0.000000E+00
  4.000000E+01,   1.000000E+02,   7.000000E+01,   2.547330E+05,   0.000000E+00
  1.000000E+02,   2.000000E+02,   1.500000E+02,   4.245550E+05,   0.000000E+00
  2.000000E+02,   3.000000E+02,   2.500000E+02,   4.245550E+05,   0.000000E+00
  3.000000E+02,   4.000000E+02,   3.500000E+02,   4.245550E+05,   0.000000E+00
  4.000000E+02,   5.000000E+02,   4.500000E+02,   4.245550E+05,   0.000000E+00
  5.000000E+02,   6.000000E+02,   5.500000E+02,   4.245550E+05,   0.000000E+00
  6.000000E+02,   7.000000E+02,   6.500000E+02,   4.245550E+05,   0.000000E+00
  7.000000E+02,   8.000000E+02,   7.500000E+02,   4.245550E+05,   0.000000E+00
  8.000000E+02,   1.000000E+03,   9.000000E+02,   8.491101E+05,   0.000000E+00
  1.000000E+03,   1.250000E+03,   1.125000E+03,   1.061388E+06,   0.000000E+00
  1.250000E+03,   1.500000E+03,   1.375000E+03,   1.041924E+06,   0.000000E+00
  1.500000E+03,   1.750000E+03,   1.625000E+03,   1.009411E+06,   0.000000E+00
  1.750000E+03,   2.000000E+03,   1.875000E+03,   9.929489E+05,   0.000000E+00
  2.000000E+03,   2.250000E+03,   2.125000E+03,   9.561235E+05,   0.000000E+00
  2.250000E+03,   2.500000E+03,   2.375000E+03,   9.387042E+05,   0.000000E+00
  2.500000E+03,   2.750000E+03,   2.625000E+03,   9.006476E+05,   0.000000E+00
  2.750000E+03,   3.000000E+03,   2.875000E+03,   8.491953E+05,   0.000000E+00
  3.000000E+03,   3.250000E+03,   3.125000E+03,   7.986286E+05,   0.000000E+00
  3.250000E+03,   3.500000E+03,   3.375000E+03,   7.886186E+05,   0.000000E+00
  3.500000E+03,   3.750000E+03,   3.625000E+03,   7.462283E+05,   0.000000E+00
  3.750000E+03,   4.000000E+03,   3.875000E+03,   7.226649E+05,   0.000000E+00
  4.000000E+03,   4.250000E+03,   4.125000E+03,   6.575075E+05,   0.000000E+00
  4.250000E+03,   4.500000E+03,   4.375000E+03,   6.278756E+05,   0.000000E+00
  4.500000E+03,   4.750000E+03,   4.625000E+03,   6.033182E+05,   0.000000E+00
  4.750000E+03,   5.000000E+03,   4.875000E+03,   5.687158E+05,   0.000000E+00
  5.000000E+03,   5.500000E+03,   5.250000E+03,   1.081621E+06,   0.000000E+00
  5.500000E+03,   6.000000E+03,   5.750000E+03,   9.816777E+05,   0.000000E+00
  6.000000E+03,   6.500000E+03,   6.250000E+03,   8.739720E+05,   0.000000E+00
  6.500000E+03,   7.000000E+03,   6.750000E+03,   8.456837E+05,   0.000000E+00
  7.000000E+03,   1.000000E+04,   8.500000E+03,   3.897099E+06,   0.000000E+00
  1.000000E+04,   2.000000E+04,   1.500000E+04,   6.929283E+06,   0.000000E+00
  2.000000E+04,   3.000000E+04,   2.500000E+04,   3.569868E+06,   0.000000E+00
  3.000000E+04,   4.000000E+04,   3.500000E+04,   2.190006E+06,   0.000000E+00
  4.000000E+04,   5.000000E+04,   4.500000E+04,   1.415232E+06,   0.000000E+00
  5.000000E+04,   6.000000E+04,   5.500000E+04,   9.369008E+05,   0.000000E+00
  6.000000E+04,   7.000000E+04,   6.500000E+04,   6.299212E+05,   0.000000E+00
  7.000000E+04,   8.000000E+04,   7.500000E+04,   4.435335E+05,   0.000000E+00
  8.000000E+04,   1.000000E+05,   9.000000E+04,   5.843834E+05,   0.000000E+00
  1.000000E+05,   1.500000E+05,   1.250000E+05,   7.105556E+05,   0.000000E+00
  1.500000E+05,   2.000000E+05,   1.750000E+05,   2.867095E+05,   0.000000E+00
  2.000000E+05,   3.000000E+05,   2.500000E+05,   1.759644E+05,   0.000000E+00
  3.000000E+05,   4.000000E+05,   3.500000E+05,   3.058087E+04,   0.000000E+00
  4.000000E+05,   5.000000E+05,   4.500000E+05,   6.724850E+03,   0.000000E+00
  5.000000E+05,   8.000000E+05,   6.500000E+05,   3.700856E+02,   0.000000E+00
  8.000000E+05,   1.000000E+06,   0.000000E+00,   0.000000E+00,   0.000000E+00
'End of File'
