'*',    13,     3,     4,     0,     5,     5,    46,     2
'OMNIDIRECTIONAL FLUENCE ANALYSIS'
'MULASSIS ml-v01-19'
'geant4-09-02-ref-00 (19-December-2008)'
'FLU_BDY', 1, 2, ' ' - 2.0 shielding
'FLU_PAR, -1, proton  '
'FLU_AMN', 1, 0., 'deg'
'FLU_AMX', 1, 90., 'deg'
'Elo','keV', 1, ' Lower edge of energy    bin '
'Eup','keV', 1, ' Upper edge of energy    bin '
'Emean','keV', 1, ' Mean energy of bin '
'Value','particles/cm2/bin',1,             'Fluence/flux'
'Error','particles/cm2/bin',1,'Error in   fluence/flux'
  0.000000E+00,   4.000000E+01,   2.000000E+01,   2.151575E+04,   0.000000E+00
  4.000000E+01,   1.000000E+02,   7.000000E+01,   3.227363E+04,   0.000000E+00
  1.000000E+02,   2.000000E+02,   1.500000E+02,   5.378938E+04,   0.000000E+00
  2.000000E+02,   3.000000E+02,   2.500000E+02,   5.378938E+04,   0.000000E+00
  3.000000E+02,   4.000000E+02,   3.500000E+02,   5.378938E+04,   0.000000E+00
  4.000000E+02,   5.000000E+02,   4.500000E+02,   5.378938E+04,   0.000000E+00
  5.000000E+02,   6.000000E+02,   5.500000E+02,   5.378938E+04,   0.000000E+00
  6.000000E+02,   7.000000E+02,   6.500000E+02,   5.378938E+04,   0.000000E+00
  7.000000E+02,   8.000000E+02,   7.500000E+02,   5.378938E+04,   0.000000E+00
  8.000000E+02,   1.000000E+03,   9.000000E+02,   1.075788E+05,   0.000000E+00
  1.000000E+03,   1.250000E+03,   1.125000E+03,   1.344735E+05,   0.000000E+00
  1.250000E+03,   1.500000E+03,   1.375000E+03,   1.406197E+05,   0.000000E+00
  1.500000E+03,   1.750000E+03,   1.625000E+03,   1.508865E+05,   0.000000E+00
  1.750000E+03,   2.000000E+03,   1.875000E+03,   1.569441E+05,   0.000000E+00
  2.000000E+03,   2.250000E+03,   2.125000E+03,   1.704952E+05,   0.000000E+00
  2.250000E+03,   2.500000E+03,   2.375000E+03,   1.751102E+05,   0.000000E+00
  2.500000E+03,   2.750000E+03,   2.625000E+03,   1.851928E+05,   0.000000E+00
  2.750000E+03,   3.000000E+03,   2.875000E+03,   2.004440E+05,   0.000000E+00
  3.000000E+03,   3.250000E+03,   3.125000E+03,   2.145876E+05,   0.000000E+00
  3.250000E+03,   3.500000E+03,   3.375000E+03,   2.174913E+05,   0.000000E+00
  3.500000E+03,   3.750000E+03,   3.625000E+03,   2.297877E+05,   0.000000E+00
  3.750000E+03,   4.000000E+03,   3.875000E+03,   2.405831E+05,   0.000000E+00
  4.000000E+03,   4.250000E+03,   4.125000E+03,   2.633106E+05,   0.000000E+00
  4.250000E+03,   4.500000E+03,   4.375000E+03,   2.757837E+05,   0.000000E+00
  4.500000E+03,   4.750000E+03,   4.625000E+03,   2.828099E+05,   0.000000E+00
  4.750000E+03,   5.000000E+03,   4.875000E+03,   2.957890E+05,   0.000000E+00
  5.000000E+03,   5.500000E+03,   5.250000E+03,   6.106452E+05,   0.000000E+00
  5.500000E+03,   6.000000E+03,   5.750000E+03,   6.671957E+05,   0.000000E+00
  6.000000E+03,   6.500000E+03,   6.250000E+03,   7.278891E+05,   0.000000E+00
  6.500000E+03,   7.000000E+03,   6.750000E+03,   7.407654E+05,   0.000000E+00
  7.000000E+03,   1.000000E+04,   8.500000E+03,   5.521478E+06,   0.000000E+00
  1.000000E+04,   2.000000E+04,   1.500000E+04,   3.260723E+07,   0.000000E+00
  2.000000E+04,   3.000000E+04,   2.500000E+04,   4.841430E+07,   0.000000E+00
  3.000000E+04,   4.000000E+04,   3.500000E+04,   5.805842E+07,   0.000000E+00
  4.000000E+04,   5.000000E+04,   4.500000E+04,   7.087817E+07,   0.000000E+00
  5.000000E+04,   6.000000E+04,   5.500000E+04,   7.783570E+07,   0.000000E+00
  6.000000E+04,   7.000000E+04,   6.500000E+04,   7.727581E+07,   0.000000E+00
  7.000000E+04,   8.000000E+04,   7.500000E+04,   7.191604E+07,   0.000000E+00
  8.000000E+04,   1.000000E+05,   9.000000E+04,   1.333026E+08,   0.000000E+00
  1.000000E+05,   1.500000E+05,   1.250000E+05,   2.132407E+08,   0.000000E+00
  1.500000E+05,   2.000000E+05,   1.750000E+05,   1.140442E+08,   0.000000E+00
  2.000000E+05,   3.000000E+05,   2.500000E+05,   1.008840E+08,   0.000000E+00
  3.000000E+05,   4.000000E+05,   3.500000E+05,   7.634895E+06,   0.000000E+00
  4.000000E+05,   5.000000E+05,   4.500000E+05,   9.161881E+04,   0.000000E+00
  5.000000E+05,   8.000000E+05,   6.500000E+05,   3.377887E+04,   0.000000E+00
  8.000000E+05,   1.000000E+06,   0.000000E+00,   0.000000E+00,   0.000000E+00
'End of Block'
'*',    13,     3,     4,     0,     5,     5,    46,     1
'OMNIDIRECTIONAL FLUENCE ANALYSIS'
'MULASSIS ml-v01-19'
'geant4-09-02-ref-00 (19-December-2008)'
'FLU_BDY', 1, 2, ' '
'FLU_PAR, -1, e-      '
'FLU_AMN', 1, 0., 'deg'
'FLU_AMX', 1, 90., 'deg'
'Elo','keV', 1, ' Lower edge of energy    bin '
'Eup','keV', 1, ' Upper edge of energy    bin '
'Emean','keV', 1, ' Mean energy of bin '
'Value','particles/cm2/bin',1,             'Fluence/flux'
'Error','particles/cm2/bin',1,'Error in   fluence/flux'
  0.000000E+00,   4.000000E+01,   2.000000E+01,   4.748976E+07,   0.000000E+00
  4.000000E+01,   1.000000E+02,   7.000000E+01,   2.792053E+07,   0.000000E+00
  1.000000E+02,   2.000000E+02,   1.500000E+02,   1.813561E+07,   0.000000E+00
  2.000000E+02,   3.000000E+02,   2.500000E+02,   8.864845E+06,   0.000000E+00
  3.000000E+02,   4.000000E+02,   3.500000E+02,   5.971248E+06,   0.000000E+00
  4.000000E+02,   5.000000E+02,   4.500000E+02,   4.908031E+06,   0.000000E+00
  5.000000E+02,   6.000000E+02,   5.500000E+02,   4.302062E+06,   0.000000E+00
  6.000000E+02,   7.000000E+02,   6.500000E+02,   3.882056E+06,   0.000000E+00
  7.000000E+02,   8.000000E+02,   7.500000E+02,   3.484934E+06,   0.000000E+00
  8.000000E+02,   1.000000E+03,   9.000000E+02,   5.733100E+06,   0.000000E+00
  1.000000E+03,   1.250000E+03,   1.125000E+03,   4.987072E+06,   0.000000E+00
  1.250000E+03,   1.500000E+03,   1.375000E+03,   3.126544E+06,   0.000000E+00
  1.500000E+03,   1.750000E+03,   1.625000E+03,   1.820842E+06,   0.000000E+00
  1.750000E+03,   2.000000E+03,   1.875000E+03,   1.019924E+06,   0.000000E+00
  2.000000E+03,   2.250000E+03,   2.125000E+03,   5.244406E+05,   0.000000E+00
  2.250000E+03,   2.500000E+03,   2.375000E+03,   2.363637E+05,   0.000000E+00
  2.500000E+03,   2.750000E+03,   2.625000E+03,   1.036606E+05,   0.000000E+00
  2.750000E+03,   3.000000E+03,   2.875000E+03,   3.968713E+04,   0.000000E+00
  3.000000E+03,   3.250000E+03,   3.125000E+03,   1.235850E+04,   0.000000E+00
  3.250000E+03,   3.500000E+03,   3.375000E+03,   4.974990E+03,   0.000000E+00
  3.500000E+03,   3.750000E+03,   3.625000E+03,   3.766070E+03,   0.000000E+00
  3.750000E+03,   4.000000E+03,   3.875000E+03,   2.828389E+03,   0.000000E+00
  4.000000E+03,   4.250000E+03,   4.125000E+03,   2.152791E+03,   0.000000E+00
  4.250000E+03,   4.500000E+03,   4.375000E+03,   1.708992E+03,   0.000000E+00
  4.500000E+03,   4.750000E+03,   4.625000E+03,   1.451308E+03,   0.000000E+00
  4.750000E+03,   5.000000E+03,   4.875000E+03,   1.306535E+03,   0.000000E+00
  5.000000E+03,   5.500000E+03,   5.250000E+03,   2.398845E+03,   0.000000E+00
  5.500000E+03,   6.000000E+03,   5.750000E+03,   2.309881E+03,   0.000000E+00
  6.000000E+03,   6.500000E+03,   6.250000E+03,   2.293899E+03,   0.000000E+00
  6.500000E+03,   7.000000E+03,   6.750000E+03,   2.293899E+03,   0.000000E+00
  7.000000E+03,   1.000000E+04,   8.500000E+03,   1.376340E+04,   0.000000E+00
  1.000000E+04,   2.000000E+04,   1.500000E+04,   4.587799E+04,   0.000000E+00
  2.000000E+04,   3.000000E+04,   2.500000E+04,   4.587799E+04,   0.000000E+00
  3.000000E+04,   4.000000E+04,   3.500000E+04,   4.587799E+04,   0.000000E+00
  4.000000E+04,   5.000000E+04,   4.500000E+04,   4.480986E+04,   0.000000E+00
  5.000000E+04,   6.000000E+04,   5.500000E+04,   3.802957E+04,   0.000000E+00
  6.000000E+04,   7.000000E+04,   6.500000E+04,   3.233214E+04,   0.000000E+00
  7.000000E+04,   8.000000E+04,   7.500000E+04,   2.744387E+04,   0.000000E+00
  8.000000E+04,   1.000000E+05,   9.000000E+04,   4.591618E+04,   0.000000E+00
  1.000000E+05,   1.500000E+05,   1.250000E+05,   6.845743E+04,   0.000000E+00
  1.500000E+05,   2.000000E+05,   1.750000E+05,   2.532112E+04,   0.000000E+00
  2.000000E+05,   3.000000E+05,   2.500000E+05,   9.976760E+03,   0.000000E+00
  3.000000E+05,   4.000000E+05,   0.000000E+00,  -9.410417E+01,   0.000000E+00
  4.000000E+05,   5.000000E+05,   4.500000E+05,   1.245763E+01,   0.000000E+00
  5.000000E+05,   8.000000E+05,   6.500000E+05,   1.712102E+00,   0.000000E+00
  8.000000E+05,   1.000000E+06,   0.000000E+00,   0.000000E+00,   0.000000E+00
'End of Block'
'*',    13,     3,     4,     0,     5,     5,    46,    -1
'OMNIDIRECTIONAL FLUENCE ANALYSIS'
'MULASSIS ml-v01-19'
'geant4-09-02-ref-00 (19-December-2008)'
'FLU_BDY', 1, 2, ' '
'FLU_PAR, -1, neutron '
'FLU_AMN', 1, 0., 'deg'
'FLU_AMX', 1, 90., 'deg'
'Elo','keV', 1, ' Lower edge of energy    bin '
'Eup','keV', 1, ' Upper edge of energy    bin '
'Emean','keV', 1, ' Mean energy of bin '
'Value','particles/cm2/bin',1,             'Fluence/flux'
'Error','particles/cm2/bin',1,'Error in   fluence/flux'
  0.000000E+00,   4.000000E+01,   2.000000E+01,   1.375665E+05,   0.000000E+00
  4.000000E+01,   1.000000E+02,   7.000000E+01,   2.063498E+05,   0.000000E+00
  1.000000E+02,   2.000000E+02,   1.500000E+02,   3.439163E+05,   0.000000E+00
  2.000000E+02,   3.000000E+02,   2.500000E+02,   3.439163E+05,   0.000000E+00
  3.000000E+02,   4.000000E+02,   3.500000E+02,   3.439163E+05,   0.000000E+00
  4.000000E+02,   5.000000E+02,   4.500000E+02,   3.439163E+05,   0.000000E+00
  5.000000E+02,   6.000000E+02,   5.500000E+02,   3.439163E+05,   0.000000E+00
  6.000000E+02,   7.000000E+02,   6.500000E+02,   3.439163E+05,   0.000000E+00
  7.000000E+02,   8.000000E+02,   7.500000E+02,   3.439163E+05,   0.000000E+00
  8.000000E+02,   1.000000E+03,   9.000000E+02,   6.878326E+05,   0.000000E+00
  1.000000E+03,   1.250000E+03,   1.125000E+03,   8.597908E+05,   0.000000E+00
  1.250000E+03,   1.500000E+03,   1.375000E+03,   8.560522E+05,   0.000000E+00
  1.500000E+03,   1.750000E+03,   1.625000E+03,   8.498071E+05,   0.000000E+00
  1.750000E+03,   2.000000E+03,   1.875000E+03,   8.447794E+05,   0.000000E+00
  2.000000E+03,   2.250000E+03,   2.125000E+03,   8.335323E+05,   0.000000E+00
  2.250000E+03,   2.500000E+03,   2.375000E+03,   8.272330E+05,   0.000000E+00
  2.500000E+03,   2.750000E+03,   2.625000E+03,   8.134706E+05,   0.000000E+00
  2.750000E+03,   3.000000E+03,   2.875000E+03,   7.985062E+05,   0.000000E+00
  3.000000E+03,   3.250000E+03,   3.125000E+03,   7.765358E+05,   0.000000E+00
  3.250000E+03,   3.500000E+03,   3.375000E+03,   7.697155E+05,   0.000000E+00
  3.500000E+03,   3.750000E+03,   3.625000E+03,   7.408331E+05,   0.000000E+00
  3.750000E+03,   4.000000E+03,   3.875000E+03,   7.336364E+05,   0.000000E+00
  4.000000E+03,   4.250000E+03,   4.125000E+03,   6.880689E+05,   0.000000E+00
  4.250000E+03,   4.500000E+03,   4.375000E+03,   6.814107E+05,   0.000000E+00
  4.500000E+03,   4.750000E+03,   4.625000E+03,   6.575009E+05,   0.000000E+00
  4.750000E+03,   5.000000E+03,   4.875000E+03,   6.349767E+05,   0.000000E+00
  5.000000E+03,   5.500000E+03,   5.250000E+03,   1.223682E+06,   0.000000E+00
  5.500000E+03,   6.000000E+03,   5.750000E+03,   1.155912E+06,   0.000000E+00
  6.000000E+03,   6.500000E+03,   6.250000E+03,   1.045522E+06,   0.000000E+00
  6.500000E+03,   7.000000E+03,   6.750000E+03,   9.928030E+05,   0.000000E+00
  7.000000E+03,   1.000000E+04,   8.500000E+03,   4.808648E+06,   0.000000E+00
  1.000000E+04,   2.000000E+04,   1.500000E+04,   8.535300E+06,   0.000000E+00
  2.000000E+04,   3.000000E+04,   2.500000E+04,   4.536968E+06,   0.000000E+00
  3.000000E+04,   4.000000E+04,   3.500000E+04,   3.153616E+06,   0.000000E+00
  4.000000E+04,   5.000000E+04,   4.500000E+04,   2.323371E+06,   0.000000E+00
  5.000000E+04,   6.000000E+04,   5.500000E+04,   1.785573E+06,   0.000000E+00
  6.000000E+04,   7.000000E+04,   6.500000E+04,   1.375058E+06,   0.000000E+00
  7.000000E+04,   8.000000E+04,   7.500000E+04,   1.093519E+06,   0.000000E+00
  8.000000E+04,   1.000000E+05,   9.000000E+04,   1.591039E+06,   0.000000E+00
  1.000000E+05,   1.500000E+05,   1.250000E+05,   2.122930E+06,   0.000000E+00
  1.500000E+05,   2.000000E+05,   1.750000E+05,   8.695274E+05,   0.000000E+00
  2.000000E+05,   3.000000E+05,   2.500000E+05,   3.741565E+05,   0.000000E+00
  3.000000E+05,   4.000000E+05,   0.000000E+00,  -1.007685E+04,   0.000000E+00
  4.000000E+05,   5.000000E+05,   4.500000E+05,   2.776945E+02,   0.000000E+00
  5.000000E+05,   8.000000E+05,   6.500000E+05,   1.597607E+01,   0.000000E+00
  8.000000E+05,   1.000000E+06,   0.000000E+00,   0.000000E+00,   0.000000E+00
'End of File'
