'*',    13,     3,     4,     0,     5,     5,    46,     2
'OMNIDIRECTIONAL FLUENCE ANALYSIS'
'MULASSIS ml-v01-19'
'geant4-09-02-ref-00 (19-December-2008)'
'FLU_BDY', 1, 2, ' '
'FLU_PAR, -1, proton  '
'FLU_AMN', 1, 0., 'deg'
'FLU_AMX', 1, 90., 'deg'
'Elo','keV', 1, ' Lower edge of energy    bin '
'Eup','keV', 1, ' Upper edge of energy    bin '
'Emean','keV', 1, ' Mean energy of bin '
'Value','particles/cm2/bin',1,             'Fluence/flux'
'Error','particles/cm2/bin',1,'Error in   fluence/flux'
  0.000000E+00,   4.000000E+01,   2.000000E+01,   2.734963E+04,   0.000000E+00
  4.000000E+01,   1.000000E+02,   7.000000E+01,   4.102445E+04,   0.000000E+00
  1.000000E+02,   2.000000E+02,   1.500000E+02,   6.837409E+04,   0.000000E+00
  2.000000E+02,   3.000000E+02,   2.500000E+02,   6.837409E+04,   0.000000E+00
  3.000000E+02,   4.000000E+02,   3.500000E+02,   6.837409E+04,   0.000000E+00
  4.000000E+02,   5.000000E+02,   4.500000E+02,   6.837409E+04,   0.000000E+00
  5.000000E+02,   6.000000E+02,   5.500000E+02,   6.837409E+04,   0.000000E+00
  6.000000E+02,   7.000000E+02,   6.500000E+02,   6.837409E+04,   0.000000E+00
  7.000000E+02,   8.000000E+02,   7.500000E+02,   6.837409E+04,   0.000000E+00
  8.000000E+02,   1.000000E+03,   9.000000E+02,   1.367482E+05,   0.000000E+00
  1.000000E+03,   1.250000E+03,   1.125000E+03,   1.709352E+05,   0.000000E+00
  1.250000E+03,   1.500000E+03,   1.375000E+03,   1.921390E+05,   0.000000E+00
  1.500000E+03,   1.750000E+03,   1.625000E+03,   2.275586E+05,   0.000000E+00
  1.750000E+03,   2.000000E+03,   1.875000E+03,   2.407004E+05,   0.000000E+00
  2.000000E+03,   2.250000E+03,   2.125000E+03,   2.700991E+05,   0.000000E+00
  2.250000E+03,   2.500000E+03,   2.375000E+03,   2.785480E+05,   0.000000E+00
  2.500000E+03,   2.750000E+03,   2.625000E+03,   2.970067E+05,   0.000000E+00
  2.750000E+03,   3.000000E+03,   2.875000E+03,   3.402828E+05,   0.000000E+00
  3.000000E+03,   3.250000E+03,   3.125000E+03,   3.665493E+05,   0.000000E+00
  3.250000E+03,   3.500000E+03,   3.375000E+03,   3.693732E+05,   0.000000E+00
  3.500000E+03,   3.750000E+03,   3.625000E+03,   3.813318E+05,   0.000000E+00
  3.750000E+03,   4.000000E+03,   3.875000E+03,   4.047520E+05,   0.000000E+00
  4.000000E+03,   4.250000E+03,   4.125000E+03,   4.360753E+05,   0.000000E+00
  4.250000E+03,   4.500000E+03,   4.375000E+03,   4.779199E+05,   0.000000E+00
  4.500000E+03,   4.750000E+03,   4.625000E+03,   4.827069E+05,   0.000000E+00
  4.750000E+03,   5.000000E+03,   4.875000E+03,   5.010886E+05,   0.000000E+00
  5.000000E+03,   5.500000E+03,   5.250000E+03,   1.025624E+06,   0.000000E+00
  5.500000E+03,   6.000000E+03,   5.750000E+03,   1.151486E+06,   0.000000E+00
  6.000000E+03,   6.500000E+03,   6.250000E+03,   1.245678E+06,   0.000000E+00
  6.500000E+03,   7.000000E+03,   6.750000E+03,   1.253024E+06,   0.000000E+00
  7.000000E+03,   1.000000E+04,   8.500000E+03,   9.590390E+06,   0.000000E+00
  1.000000E+04,   2.000000E+04,   1.500000E+04,   6.069035E+07,   0.000000E+00
  2.000000E+04,   3.000000E+04,   2.500000E+04,   7.274106E+07,   0.000000E+00
  3.000000E+04,   4.000000E+04,   3.500000E+04,   6.674463E+07,   0.000000E+00
  4.000000E+04,   5.000000E+04,   4.500000E+04,   6.287648E+07,   0.000000E+00
  5.000000E+04,   6.000000E+04,   5.500000E+04,   5.585676E+07,   0.000000E+00
  6.000000E+04,   7.000000E+04,   6.500000E+04,   4.663071E+07,   0.000000E+00
  7.000000E+04,   8.000000E+04,   7.500000E+04,   3.608399E+07,   0.000000E+00
  8.000000E+04,   1.000000E+05,   9.000000E+04,   4.488443E+07,   0.000000E+00
  1.000000E+05,   1.500000E+05,   1.250000E+05,   5.633955E+07,   0.000000E+00
  1.500000E+05,   2.000000E+05,   1.750000E+05,   2.490192E+07,   0.000000E+00
  2.000000E+05,   3.000000E+05,   2.500000E+05,   2.463324E+07,   0.000000E+00
  3.000000E+05,   4.000000E+05,   3.500000E+05,   7.284984E+06,   0.000000E+00
  4.000000E+05,   5.000000E+05,   4.500000E+05,   2.276360E+06,   0.000000E+00
  5.000000E+05,   8.000000E+05,   6.500000E+05,   7.293665E+05,   0.000000E+00
  8.000000E+05,   1.000000E+06,   0.000000E+00,   0.000000E+00,   0.000000E+00
'End of Block'
'*',    13,     3,     4,     0,     5,     5,    46,     1
'OMNIDIRECTIONAL FLUENCE ANALYSIS'
'MULASSIS ml-v01-19'
'geant4-09-02-ref-00 (19-December-2008)'
'FLU_BDY', 1, 2, ' '
'FLU_PAR, -1, e-      '
'FLU_AMN', 1, 0., 'deg'
'FLU_AMX', 1, 90., 'deg'
'Elo','keV', 1, ' Lower edge of energy    bin '
'Eup','keV', 1, ' Upper edge of energy    bin '
'Emean','keV', 1, ' Mean energy of bin '
'Value','particles/cm2/bin',1,             'Fluence/flux'
'Error','particles/cm2/bin',1,'Error in   fluence/flux'
  0.000000E+00,   4.000000E+01,   2.000000E+01,   2.114201E+09,   0.000000E+00
  4.000000E+01,   1.000000E+02,   7.000000E+01,   1.942853E+09,   0.000000E+00
  1.000000E+02,   2.000000E+02,   1.500000E+02,   2.727858E+09,   0.000000E+00
  2.000000E+02,   3.000000E+02,   2.500000E+02,   3.043731E+09,   0.000000E+00
  3.000000E+02,   4.000000E+02,   3.500000E+02,   2.962007E+09,   0.000000E+00
  4.000000E+02,   5.000000E+02,   4.500000E+02,   2.843301E+09,   0.000000E+00
  5.000000E+02,   6.000000E+02,   5.500000E+02,   2.576105E+09,   0.000000E+00
  6.000000E+02,   7.000000E+02,   6.500000E+02,   2.300802E+09,   0.000000E+00
  7.000000E+02,   8.000000E+02,   7.500000E+02,   2.003854E+09,   0.000000E+00
  8.000000E+02,   1.000000E+03,   9.000000E+02,   3.104713E+09,   0.000000E+00
  1.000000E+03,   1.250000E+03,   1.125000E+03,   2.435882E+09,   0.000000E+00
  1.250000E+03,   1.500000E+03,   1.375000E+03,   1.358570E+09,   0.000000E+00
  1.500000E+03,   1.750000E+03,   1.625000E+03,   6.589322E+08,   0.000000E+00
  1.750000E+03,   2.000000E+03,   1.875000E+03,   2.744914E+08,   0.000000E+00
  2.000000E+03,   2.250000E+03,   2.125000E+03,   1.058770E+08,   0.000000E+00
  2.250000E+03,   2.500000E+03,   2.375000E+03,   3.612732E+07,   0.000000E+00
  2.500000E+03,   2.750000E+03,   2.625000E+03,   1.320855E+07,   0.000000E+00
  2.750000E+03,   3.000000E+03,   2.875000E+03,   5.506250E+06,   0.000000E+00
  3.000000E+03,   3.250000E+03,   3.125000E+03,   3.276726E+06,   0.000000E+00
  3.250000E+03,   3.500000E+03,   3.375000E+03,   2.408145E+06,   0.000000E+00
  3.500000E+03,   3.750000E+03,   3.625000E+03,   1.526067E+06,   0.000000E+00
  3.750000E+03,   4.000000E+03,   3.875000E+03,   8.868304E+05,   0.000000E+00
  4.000000E+03,   4.250000E+03,   4.125000E+03,   4.743924E+05,   0.000000E+00
  4.250000E+03,   4.500000E+03,   4.375000E+03,   2.351364E+05,   0.000000E+00
  4.500000E+03,   4.750000E+03,   4.625000E+03,   1.045961E+05,   0.000000E+00
  4.750000E+03,   5.000000E+03,   4.875000E+03,   4.112882E+04,   0.000000E+00
  5.000000E+03,   5.500000E+03,   5.250000E+03,   1.999561E+04,   0.000000E+00
  5.500000E+03,   6.000000E+03,   5.750000E+03,   3.752063E+03,   0.000000E+00
  6.000000E+03,   6.500000E+03,   6.250000E+03,   2.323722E+03,   0.000000E+00
  6.500000E+03,   7.000000E+03,   6.750000E+03,   2.323722E+03,   0.000000E+00
  7.000000E+03,   1.000000E+04,   8.500000E+03,   1.394233E+04,   0.000000E+00
  1.000000E+04,   2.000000E+04,   1.500000E+04,   4.647444E+04,   0.000000E+00
  2.000000E+04,   3.000000E+04,   2.500000E+04,   4.647444E+04,   0.000000E+00
  3.000000E+04,   4.000000E+04,   3.500000E+04,   4.647444E+04,   0.000000E+00
  4.000000E+04,   5.000000E+04,   4.500000E+04,   4.278949E+04,   0.000000E+00
  5.000000E+04,   6.000000E+04,   5.500000E+04,   2.489229E+04,   0.000000E+00
  6.000000E+04,   7.000000E+04,   6.500000E+04,   1.530154E+04,   0.000000E+00
  7.000000E+04,   8.000000E+04,   7.500000E+04,   1.025861E+04,   0.000000E+00
  8.000000E+04,   1.000000E+05,   9.000000E+04,   1.406053E+04,   0.000000E+00
  1.000000E+05,   1.500000E+05,   1.250000E+05,   1.761562E+04,   0.000000E+00
  1.500000E+05,   2.000000E+05,   1.750000E+05,   6.233863E+03,   0.000000E+00
  2.000000E+05,   3.000000E+05,   2.500000E+05,   3.655295E+03,   0.000000E+00
  3.000000E+05,   4.000000E+05,   3.500000E+05,   9.651587E+02,   0.000000E+00
  4.000000E+05,   5.000000E+05,   4.500000E+05,   2.844455E+02,   0.000000E+00
  5.000000E+05,   8.000000E+05,   6.500000E+05,   3.696838E+01,   0.000000E+00
  8.000000E+05,   1.000000E+06,   0.000000E+00,   0.000000E+00,   0.000000E+00
'End of Block'
'*',    13,     3,     4,     0,     5,     5,    46,    -1
'OMNIDIRECTIONAL FLUENCE ANALYSIS'
'MULASSIS ml-v01-19'
'geant4-09-02-ref-00 (19-December-2008)'
'FLU_BDY', 1, 2, ' '
'FLU_PAR, -1, neutron '
'FLU_AMN', 1, 0., 'deg'
'FLU_AMX', 1, 90., 'deg'
'Elo','keV', 1, ' Lower edge of energy    bin '
'Eup','keV', 1, ' Upper edge of energy    bin '
'Emean','keV', 1, ' Mean energy of bin '
'Value','particles/cm2/bin',1,             'Fluence/flux'
'Error','particles/cm2/bin',1,'Error in   fluence/flux'
  0.000000E+00,   4.000000E+01,   2.000000E+01,   1.135897E+05,   0.000000E+00
  4.000000E+01,   1.000000E+02,   7.000000E+01,   1.703846E+05,   0.000000E+00
  1.000000E+02,   2.000000E+02,   1.500000E+02,   2.839744E+05,   0.000000E+00
  2.000000E+02,   3.000000E+02,   2.500000E+02,   2.839744E+05,   0.000000E+00
  3.000000E+02,   4.000000E+02,   3.500000E+02,   2.839744E+05,   0.000000E+00
  4.000000E+02,   5.000000E+02,   4.500000E+02,   2.839744E+05,   0.000000E+00
  5.000000E+02,   6.000000E+02,   5.500000E+02,   2.839744E+05,   0.000000E+00
  6.000000E+02,   7.000000E+02,   6.500000E+02,   2.839744E+05,   0.000000E+00
  7.000000E+02,   8.000000E+02,   7.500000E+02,   2.839744E+05,   0.000000E+00
  8.000000E+02,   1.000000E+03,   9.000000E+02,   5.679487E+05,   0.000000E+00
  1.000000E+03,   1.250000E+03,   1.125000E+03,   7.099359E+05,   0.000000E+00
  1.250000E+03,   1.500000E+03,   1.375000E+03,   6.970381E+05,   0.000000E+00
  1.500000E+03,   1.750000E+03,   1.625000E+03,   6.754932E+05,   0.000000E+00
  1.750000E+03,   2.000000E+03,   1.875000E+03,   6.645857E+05,   0.000000E+00
  2.000000E+03,   2.250000E+03,   2.125000E+03,   6.401855E+05,   0.000000E+00
  2.250000E+03,   2.500000E+03,   2.375000E+03,   6.286531E+05,   0.000000E+00
  2.500000E+03,   2.750000E+03,   2.625000E+03,   6.034576E+05,   0.000000E+00
  2.750000E+03,   3.000000E+03,   2.875000E+03,   5.693639E+05,   0.000000E+00
  3.000000E+03,   3.250000E+03,   3.125000E+03,   5.358591E+05,   0.000000E+00
  3.250000E+03,   3.500000E+03,   3.375000E+03,   5.292262E+05,   0.000000E+00
  3.500000E+03,   3.750000E+03,   3.625000E+03,   5.011373E+05,   0.000000E+00
  3.750000E+03,   4.000000E+03,   3.875000E+03,   4.855244E+05,   0.000000E+00
  4.000000E+03,   4.250000E+03,   4.125000E+03,   4.423345E+05,   0.000000E+00
  4.250000E+03,   4.500000E+03,   4.375000E+03,   4.226984E+05,   0.000000E+00
  4.500000E+03,   4.750000E+03,   4.625000E+03,   4.064086E+05,   0.000000E+00
  4.750000E+03,   5.000000E+03,   4.875000E+03,   3.834790E+05,   0.000000E+00
  5.000000E+03,   5.500000E+03,   5.250000E+03,   7.299691E+05,   0.000000E+00
  5.500000E+03,   6.000000E+03,   5.750000E+03,   6.637081E+05,   0.000000E+00
  6.000000E+03,   6.500000E+03,   6.250000E+03,   5.922277E+05,   0.000000E+00
  6.500000E+03,   7.000000E+03,   6.750000E+03,   5.733174E+05,   0.000000E+00
  7.000000E+03,   1.000000E+04,   8.500000E+03,   2.654090E+06,   0.000000E+00
  1.000000E+04,   2.000000E+04,   1.500000E+04,   4.733342E+06,   0.000000E+00
  2.000000E+04,   3.000000E+04,   2.500000E+04,   2.432266E+06,   0.000000E+00
  3.000000E+04,   4.000000E+04,   3.500000E+04,   1.495835E+06,   0.000000E+00
  4.000000E+04,   5.000000E+04,   4.500000E+04,   9.734862E+05,   0.000000E+00
  5.000000E+04,   6.000000E+04,   5.500000E+04,   6.513374E+05,   0.000000E+00
  6.000000E+04,   7.000000E+04,   6.500000E+04,   4.441009E+05,   0.000000E+00
  7.000000E+04,   8.000000E+04,   7.500000E+04,   3.177379E+05,   0.000000E+00
  8.000000E+04,   1.000000E+05,   9.000000E+04,   4.284824E+05,   0.000000E+00
  1.000000E+05,   1.500000E+05,   1.250000E+05,   5.460032E+05,   0.000000E+00
  1.500000E+05,   2.000000E+05,   1.750000E+05,   2.341928E+05,   0.000000E+00
  2.000000E+05,   3.000000E+05,   2.500000E+05,   1.509231E+05,   0.000000E+00
  3.000000E+05,   4.000000E+05,   3.500000E+05,   2.758332E+04,   0.000000E+00
  4.000000E+05,   5.000000E+05,   4.500000E+05,   6.238691E+03,   0.000000E+00
  5.000000E+05,   8.000000E+05,   6.500000E+05,   3.449616E+02,   0.000000E+00
  8.000000E+05,   1.000000E+06,   0.000000E+00,   0.000000E+00,   0.000000E+00
'End of File'
