'*',    13,     3,     4,     0,     5,     5,    46,     2
'OMNIDIRECTIONAL FLUENCE ANALYSIS'
'MULASSIS ml-v01-19'
'geant4-09-02-ref-00 (19-December-2008)'
'FLU_BDY', 1, 2, ' '
'FLU_PAR, -1, proton  '
'FLU_AMN', 1, 0., 'deg'
'FLU_AMX', 1, 90., 'deg'
'Elo','keV', 1, ' Lower edge of energy    bin '
'Eup','keV', 1, ' Upper edge of energy    bin '
'Emean','keV', 1, ' Mean energy of bin '
'Value','particles/cm2/bin',1,             'Fluence/flux'
'Error','particles/cm2/bin',1,'Error in   fluence/flux'
  0.000000E+00,   4.000000E+01,   2.000000E+01,   5.261746E+04,   0.000000E+00
  4.000000E+01,   1.000000E+02,   7.000000E+01,   7.892618E+04,   0.000000E+00
  1.000000E+02,   2.000000E+02,   1.500000E+02,   1.315436E+05,   0.000000E+00
  2.000000E+02,   3.000000E+02,   2.500000E+02,   1.315436E+05,   0.000000E+00
  3.000000E+02,   4.000000E+02,   3.500000E+02,   1.315436E+05,   0.000000E+00
  4.000000E+02,   5.000000E+02,   4.500000E+02,   1.315436E+05,   0.000000E+00
  5.000000E+02,   6.000000E+02,   5.500000E+02,   1.315436E+05,   0.000000E+00
  6.000000E+02,   7.000000E+02,   6.500000E+02,   1.315436E+05,   0.000000E+00
  7.000000E+02,   8.000000E+02,   7.500000E+02,   1.315436E+05,   0.000000E+00
  8.000000E+02,   1.000000E+03,   9.000000E+02,   2.630873E+05,   0.000000E+00
  1.000000E+03,   1.250000E+03,   1.125000E+03,   3.288591E+05,   0.000000E+00
  1.250000E+03,   1.500000E+03,   1.375000E+03,   3.640327E+05,   0.000000E+00
  1.500000E+03,   1.750000E+03,   1.625000E+03,   4.227880E+05,   0.000000E+00
  1.750000E+03,   2.000000E+03,   1.875000E+03,   4.456050E+05,   0.000000E+00
  2.000000E+03,   2.250000E+03,   2.125000E+03,   4.966470E+05,   0.000000E+00
  2.250000E+03,   2.500000E+03,   2.375000E+03,   5.117495E+05,   0.000000E+00
  2.500000E+03,   2.750000E+03,   2.625000E+03,   5.447448E+05,   0.000000E+00
  2.750000E+03,   3.000000E+03,   2.875000E+03,   6.180546E+05,   0.000000E+00
  3.000000E+03,   3.250000E+03,   3.125000E+03,   6.652971E+05,   0.000000E+00
  3.250000E+03,   3.500000E+03,   3.375000E+03,   6.711866E+05,   0.000000E+00
  3.500000E+03,   3.750000E+03,   3.625000E+03,   6.961274E+05,   0.000000E+00
  3.750000E+03,   4.000000E+03,   3.875000E+03,   7.367896E+05,   0.000000E+00
  4.000000E+03,   4.250000E+03,   4.125000E+03,   7.963708E+05,   0.000000E+00
  4.250000E+03,   4.500000E+03,   4.375000E+03,   8.659842E+05,   0.000000E+00
  4.500000E+03,   4.750000E+03,   4.625000E+03,   8.772019E+05,   0.000000E+00
  4.750000E+03,   5.000000E+03,   4.875000E+03,   9.118319E+05,   0.000000E+00
  5.000000E+03,   5.500000E+03,   5.250000E+03,   1.869332E+06,   0.000000E+00
  5.500000E+03,   6.000000E+03,   5.750000E+03,   2.088804E+06,   0.000000E+00
  6.000000E+03,   6.500000E+03,   6.250000E+03,   2.262451E+06,   0.000000E+00
  6.500000E+03,   7.000000E+03,   6.750000E+03,   2.280448E+06,   0.000000E+00
  7.000000E+03,   1.000000E+04,   8.500000E+03,   1.737564E+07,   0.000000E+00
  1.000000E+04,   2.000000E+04,   1.500000E+04,   1.087011E+08,   0.000000E+00
  2.000000E+04,   3.000000E+04,   2.500000E+04,   1.352145E+08,   0.000000E+00
  3.000000E+04,   4.000000E+04,   3.500000E+04,   1.320817E+08,   0.000000E+00
  4.000000E+04,   5.000000E+04,   4.500000E+04,   1.341640E+08,   0.000000E+00
  5.000000E+04,   6.000000E+04,   5.500000E+04,   1.278043E+08,   0.000000E+00
  6.000000E+04,   7.000000E+04,   6.500000E+04,   1.134571E+08,   0.000000E+00
  7.000000E+04,   8.000000E+04,   7.500000E+04,   9.403934E+07,   0.000000E+00
  8.000000E+04,   1.000000E+05,   9.000000E+04,   1.376892E+08,   0.000000E+00
  1.000000E+05,   1.500000E+05,   1.250000E+05,   1.952356E+08,   0.000000E+00
  1.500000E+05,   2.000000E+05,   1.750000E+05,   9.500072E+07,   0.000000E+00
  2.000000E+05,   3.000000E+05,   2.500000E+05,   8.535308E+07,   0.000000E+00
  3.000000E+05,   4.000000E+05,   3.500000E+05,   6.256420E+06,   0.000000E+00
  4.000000E+05,   5.000000E+05,   4.500000E+05,   2.339454E+06,   0.000000E+00
  5.000000E+05,   8.000000E+05,   6.500000E+05,   7.382092E+05,   0.000000E+00
  8.000000E+05,   1.000000E+06,   0.000000E+00,   0.000000E+00,   0.000000E+00
'End of Block'
'*',    13,     3,     4,     0,     5,     5,    46,     1
'OMNIDIRECTIONAL FLUENCE ANALYSIS'
'MULASSIS ml-v01-19'
'geant4-09-02-ref-00 (19-December-2008)'
'FLU_BDY', 1, 2, ' '
'FLU_PAR, -1, e-      '
'FLU_AMN', 1, 0., 'deg'
'FLU_AMX', 1, 90., 'deg'
'Elo','keV', 1, ' Lower edge of energy    bin '
'Eup','keV', 1, ' Upper edge of energy    bin '
'Emean','keV', 1, ' Mean energy of bin '
'Value','particles/cm2/bin',1,             'Fluence/flux'
'Error','particles/cm2/bin',1,'Error in   fluence/flux'
  0.000000E+00,   4.000000E+01,   2.000000E+01,   2.928581E+08,   0.000000E+00
  4.000000E+01,   1.000000E+02,   7.000000E+01,   2.377336E+08,   0.000000E+00
  1.000000E+02,   2.000000E+02,   1.500000E+02,   3.072359E+08,   0.000000E+00
  2.000000E+02,   3.000000E+02,   2.500000E+02,   3.311684E+08,   0.000000E+00
  3.000000E+02,   4.000000E+02,   3.500000E+02,   3.204160E+08,   0.000000E+00
  4.000000E+02,   5.000000E+02,   4.500000E+02,   3.075621E+08,   0.000000E+00
  5.000000E+02,   6.000000E+02,   5.500000E+02,   2.808272E+08,   0.000000E+00
  6.000000E+02,   7.000000E+02,   6.500000E+02,   2.540012E+08,   0.000000E+00
  7.000000E+02,   8.000000E+02,   7.500000E+02,   2.244946E+08,   0.000000E+00
  8.000000E+02,   1.000000E+03,   9.000000E+02,   3.576222E+08,   0.000000E+00
  1.000000E+03,   1.250000E+03,   1.125000E+03,   2.905413E+08,   0.000000E+00
  1.250000E+03,   1.500000E+03,   1.375000E+03,   1.668285E+08,   0.000000E+00
  1.500000E+03,   1.750000E+03,   1.625000E+03,   7.235429E+07,   0.000000E+00
  1.750000E+03,   2.000000E+03,   1.875000E+03,   1.957438E+07,   0.000000E+00
  2.000000E+03,   2.250000E+03,   2.125000E+03,   4.872286E+06,   0.000000E+00
  2.250000E+03,   2.500000E+03,   2.375000E+03,   1.221986E+06,   0.000000E+00
  2.500000E+03,   2.750000E+03,   2.625000E+03,   5.153941E+05,   0.000000E+00
  2.750000E+03,   3.000000E+03,   2.875000E+03,   3.790581E+05,   0.000000E+00
  3.000000E+03,   3.250000E+03,   3.125000E+03,   3.340767E+05,   0.000000E+00
  3.250000E+03,   3.500000E+03,   3.375000E+03,   2.709165E+05,   0.000000E+00
  3.500000E+03,   3.750000E+03,   3.625000E+03,   1.734499E+05,   0.000000E+00
  3.750000E+03,   4.000000E+03,   3.875000E+03,   1.046789E+05,   0.000000E+00
  4.000000E+03,   4.250000E+03,   4.125000E+03,   5.867970E+04,   0.000000E+00
  4.250000E+03,   4.500000E+03,   4.375000E+03,   3.082888E+04,   0.000000E+00
  4.500000E+03,   4.750000E+03,   4.625000E+03,   1.290229E+04,   0.000000E+00
  4.750000E+03,   5.000000E+03,   4.875000E+03,   4.871924E+03,   0.000000E+00
  5.000000E+03,   5.500000E+03,   5.250000E+03,   5.322674E+03,   0.000000E+00
  5.500000E+03,   6.000000E+03,   5.750000E+03,   4.735587E+03,   0.000000E+00
  6.000000E+03,   6.500000E+03,   6.250000E+03,   4.707990E+03,   0.000000E+00
  6.500000E+03,   7.000000E+03,   6.750000E+03,   4.705344E+03,   0.000000E+00
  7.000000E+03,   1.000000E+04,   8.500000E+03,   2.823206E+04,   0.000000E+00
  1.000000E+04,   2.000000E+04,   1.500000E+04,   9.410687E+04,   0.000000E+00
  2.000000E+04,   3.000000E+04,   2.500000E+04,   9.410687E+04,   0.000000E+00
  3.000000E+04,   4.000000E+04,   3.500000E+04,   9.410687E+04,   0.000000E+00
  4.000000E+04,   5.000000E+04,   4.500000E+04,   8.799414E+04,   0.000000E+00
  5.000000E+04,   6.000000E+04,   5.500000E+04,   5.756607E+04,   0.000000E+00
  6.000000E+04,   7.000000E+04,   6.500000E+04,   4.012775E+04,   0.000000E+00
  7.000000E+04,   8.000000E+04,   7.500000E+04,   2.979248E+04,   0.000000E+00
  8.000000E+04,   1.000000E+05,   9.000000E+04,   4.474524E+04,   0.000000E+00
  1.000000E+05,   1.500000E+05,   1.250000E+05,   6.078685E+04,   0.000000E+00
  1.500000E+05,   2.000000E+05,   1.750000E+05,   2.128509E+04,   0.000000E+00
  2.000000E+05,   3.000000E+05,   2.500000E+05,   8.874809E+03,   0.000000E+00
  3.000000E+05,   4.000000E+05,   3.500000E+05,   1.692113E+02,   0.000000E+00
  4.000000E+05,   5.000000E+05,   4.500000E+05,   2.897200E+02,   0.000000E+00
  5.000000E+05,   8.000000E+05,   6.500000E+05,   3.741657E+01,   0.000000E+00
  8.000000E+05,   1.000000E+06,   0.000000E+00,   0.000000E+00,   0.000000E+00
'End of Block'
'*',    13,     3,     4,     0,     5,     5,    46,    -1
'OMNIDIRECTIONAL FLUENCE ANALYSIS'
'MULASSIS ml-v01-19'
'geant4-09-02-ref-00 (19-December-2008)'
'FLU_BDY', 1, 2, ' '
'FLU_PAR, -1, neutron '
'FLU_AMN', 1, 0., 'deg'
'FLU_AMX', 1, 90., 'deg'
'Elo','keV', 1, ' Lower edge of energy    bin '
'Eup','keV', 1, ' Upper edge of energy    bin '
'Emean','keV', 1, ' Mean energy of bin '
'Value','particles/cm2/bin',1,             'Fluence/flux'
'Error','particles/cm2/bin',1,'Error in   fluence/flux'
  0.000000E+00,   4.000000E+01,   2.000000E+01,   2.440139E+05,   0.000000E+00
  4.000000E+01,   1.000000E+02,   7.000000E+01,   3.660208E+05,   0.000000E+00
  1.000000E+02,   2.000000E+02,   1.500000E+02,   6.100346E+05,   0.000000E+00
  2.000000E+02,   3.000000E+02,   2.500000E+02,   6.100346E+05,   0.000000E+00
  3.000000E+02,   4.000000E+02,   3.500000E+02,   6.100346E+05,   0.000000E+00
  4.000000E+02,   5.000000E+02,   4.500000E+02,   6.100346E+05,   0.000000E+00
  5.000000E+02,   6.000000E+02,   5.500000E+02,   6.100346E+05,   0.000000E+00
  6.000000E+02,   7.000000E+02,   6.500000E+02,   6.100346E+05,   0.000000E+00
  7.000000E+02,   8.000000E+02,   7.500000E+02,   6.100346E+05,   0.000000E+00
  8.000000E+02,   1.000000E+03,   9.000000E+02,   1.220069E+06,   0.000000E+00
  1.000000E+03,   1.250000E+03,   1.125000E+03,   1.525087E+06,   0.000000E+00
  1.250000E+03,   1.500000E+03,   1.375000E+03,   1.503691E+06,   0.000000E+00
  1.500000E+03,   1.750000E+03,   1.625000E+03,   1.467952E+06,   0.000000E+00
  1.750000E+03,   2.000000E+03,   1.875000E+03,   1.449014E+06,   0.000000E+00
  2.000000E+03,   2.250000E+03,   2.125000E+03,   1.406650E+06,   0.000000E+00
  2.250000E+03,   2.500000E+03,   2.375000E+03,   1.386036E+06,   0.000000E+00
  2.500000E+03,   2.750000E+03,   2.625000E+03,   1.340999E+06,   0.000000E+00
  2.750000E+03,   3.000000E+03,   2.875000E+03,   1.281586E+06,   0.000000E+00
  3.000000E+03,   3.250000E+03,   3.125000E+03,   1.219116E+06,   0.000000E+00
  3.250000E+03,   3.500000E+03,   3.375000E+03,   1.205283E+06,   0.000000E+00
  3.500000E+03,   3.750000E+03,   3.625000E+03,   1.146700E+06,   0.000000E+00
  3.750000E+03,   4.000000E+03,   3.875000E+03,   1.119593E+06,   0.000000E+00
  4.000000E+03,   4.250000E+03,   4.125000E+03,   1.028930E+06,   0.000000E+00
  4.250000E+03,   4.500000E+03,   4.375000E+03,   9.957948E+05,   0.000000E+00
  4.500000E+03,   4.750000E+03,   4.625000E+03,   9.576220E+05,   0.000000E+00
  4.750000E+03,   5.000000E+03,   4.875000E+03,   9.106037E+05,   0.000000E+00
  5.000000E+03,   5.500000E+03,   5.250000E+03,   1.739447E+06,   0.000000E+00
  5.500000E+03,   6.000000E+03,   5.750000E+03,   1.602459E+06,   0.000000E+00
  6.000000E+03,   6.500000E+03,   6.250000E+03,   1.437080E+06,   0.000000E+00
  6.500000E+03,   7.000000E+03,   6.750000E+03,   1.380913E+06,   0.000000E+00
  7.000000E+03,   1.000000E+04,   8.500000E+03,   6.492260E+06,   0.000000E+00
  1.000000E+04,   2.000000E+04,   1.500000E+04,   1.149678E+07,   0.000000E+00
  2.000000E+04,   3.000000E+04,   2.500000E+04,   5.993641E+06,   0.000000E+00
  3.000000E+04,   4.000000E+04,   3.500000E+04,   3.890878E+06,   0.000000E+00
  4.000000E+04,   5.000000E+04,   4.500000E+04,   2.662790E+06,   0.000000E+00
  5.000000E+04,   6.000000E+04,   5.500000E+04,   1.894233E+06,   0.000000E+00
  6.000000E+04,   7.000000E+04,   6.500000E+04,   1.361315E+06,   0.000000E+00
  7.000000E+04,   8.000000E+04,   7.500000E+04,   1.023302E+06,   0.000000E+00
  8.000000E+04,   1.000000E+05,   9.000000E+04,   1.425083E+06,   0.000000E+00
  1.000000E+05,   1.500000E+05,   1.250000E+05,   1.833391E+06,   0.000000E+00
  1.500000E+05,   2.000000E+05,   1.750000E+05,   7.368706E+05,   0.000000E+00
  2.000000E+05,   3.000000E+05,   2.500000E+05,   3.455386E+05,   0.000000E+00
  3.000000E+05,   4.000000E+05,   0.000000E+00,  -9.235337E+02,   0.000000E+00
  4.000000E+05,   5.000000E+05,   4.500000E+05,   6.342673E+03,   0.000000E+00
  5.000000E+05,   8.000000E+05,   6.500000E+05,   3.491438E+02,   0.000000E+00
  8.000000E+05,   1.000000E+06,   0.000000E+00,   0.000000E+00,   0.000000E+00
'End of File'
