Energy
(MeV)	NIEL
(MeV cm2 g-1)	NIEL Dose*
(MeV g-1)	NIEL Dose*
(Gy)
1.0000e-05	0.0000e+00	0.0000e+00	0.0000e+00
1.5000e-05	0.0000e+00	0.0000e+00	0.0000e+00
2.0000e-05	0.0000e+00	0.0000e+00	0.0000e+00
2.5000e-05	0.0000e+00	0.0000e+00	0.0000e+00
3.0000e-05	0.0000e+00	0.0000e+00	0.0000e+00
3.5000e-05	0.0000e+00	0.0000e+00	0.0000e+00
4.0000e-05	0.0000e+00	0.0000e+00	0.0000e+00
4.5000e-05	1.2871e+00	1.2871e+00	2.0626e-10
5.0000e-05	3.6520e+00	3.6520e+00	5.8526e-10
5.5000e-05	5.8548e+00	5.8548e+00	9.3827e-10
6.0000e-05	7.9203e+00	7.9203e+00	1.2693e-09
6.5000e-05	9.8677e+00	9.8677e+00	1.5814e-09
7.0000e-05	1.1712e+01	1.1712e+01	1.8770e-09
7.5000e-05	1.3466e+01	1.3466e+01	2.1580e-09
8.0000e-05	1.5139e+01	1.5139e+01	2.4262e-09
8.5000e-05	1.6741e+01	1.6741e+01	2.6828e-09
9.0000e-05	1.8277e+01	1.8277e+01	2.9289e-09
9.5000e-05	1.9754e+01	1.9754e+01	3.1656e-09
1.0000e-04	2.1176e+01	2.1176e+01	3.3937e-09
1.5000e-04	3.3198e+01	3.3198e+01	5.3202e-09
2.0000e-04	4.2592e+01	4.2592e+01	6.8257e-09
2.5000e-04	5.0385e+01	5.0385e+01	8.0746e-09
3.0000e-04	5.7081e+01	5.7081e+01	9.1475e-09
3.5000e-04	6.2967e+01	6.2967e+01	1.0091e-08
4.0000e-04	6.8229e+01	6.8229e+01	1.0934e-08
4.5000e-04	7.2990e+01	7.2990e+01	1.1697e-08
5.0000e-04	7.7342e+01	7.7342e+01	1.2395e-08
5.5000e-04	8.1350e+01	8.1350e+01	1.3037e-08
6.0000e-04	8.5065e+01	8.5065e+01	1.3632e-08
6.5000e-04	8.8528e+01	8.8528e+01	1.4187e-08
7.0000e-04	9.1770e+01	9.1770e+01	1.4707e-08
7.5000e-04	9.4818e+01	9.4818e+01	1.5195e-08
8.0000e-04	9.7693e+01	9.7693e+01	1.5656e-08
8.5000e-04	1.0041e+02	1.0041e+02	1.6092e-08
9.0000e-04	1.0300e+02	1.0300e+02	1.6506e-08
9.5000e-04	1.0545e+02	1.0545e+02	1.6899e-08
1.0000e-03	1.0779e+02	1.0779e+02	1.7274e-08
1.5000e-03	1.2654e+02	1.2654e+02	2.0279e-08
2.0000e-03	1.3990e+02	1.3990e+02	2.2421e-08
2.5000e-03	1.5013e+02	1.5013e+02	2.4059e-08
3.0000e-03	1.5829e+02	1.5829e+02	2.5367e-08
3.5000e-03	1.6499e+02	1.6499e+02	2.6441e-08
4.0000e-03	1.7062e+02	1.7062e+02	2.7343e-08
4.5000e-03	1.7541e+02	1.7541e+02	2.8111e-08
5.0000e-03	1.7955e+02	1.7955e+02	2.8774e-08
5.5000e-03	1.8315e+02	1.8315e+02	2.9350e-08
6.0000e-03	1.8631e+02	1.8631e+02	2.9857e-08
6.5000e-03	1.8909e+02	1.8909e+02	3.0303e-08
7.0000e-03	1.9157e+02	1.9157e+02	3.0700e-08
7.5000e-03	1.9377e+02	1.9377e+02	3.1054e-08
8.0000e-03	1.9575e+02	1.9575e+02	3.1370e-08
8.5000e-03	1.9752e+02	1.9752e+02	3.1654e-08
9.0000e-03	1.9911e+02	1.9911e+02	3.1909e-08
9.5000e-03	2.0055e+02	2.0055e+02	3.2139e-08
1.0000e-02	2.0184e+02	2.0184e+02	3.2346e-08
1.5000e-02	2.0954e+02	2.0954e+02	3.3581e-08
2.0000e-02	2.1193e+02	2.1193e+02	3.3964e-08
2.5000e-02	2.1181e+02	2.1181e+02	3.3944e-08
3.0000e-02	2.1036e+02	2.1036e+02	3.3712e-08
3.5000e-02	2.0816e+02	2.0816e+02	3.3359e-08
4.0000e-02	2.0553e+02	2.0553e+02	3.2938e-08
4.5000e-02	2.0266e+02	2.0266e+02	3.2478e-08
5.0000e-02	1.9967e+02	1.9967e+02	3.1999e-08
5.5000e-02	1.9663e+02	1.9663e+02	3.1512e-08
6.0000e-02	1.9359e+02	1.9359e+02	3.1024e-08
6.5000e-02	1.9057e+02	1.9057e+02	3.0540e-08
7.0000e-02	1.8760e+02	1.8760e+02	3.0065e-08
7.5000e-02	1.8469e+02	1.8469e+02	2.9598e-08
8.0000e-02	1.8185e+02	1.8185e+02	2.9143e-08
8.5000e-02	1.7908e+02	1.7908e+02	2.8699e-08
9.0000e-02	1.7639e+02	1.7639e+02	2.8267e-08
9.5000e-02	1.7377e+02	1.7377e+02	2.7848e-08
1.0000e-01	1.7123e+02	1.7123e+02	2.7440e-08
1.5000e-01	1.4890e+02	1.4890e+02	2.3862e-08
2.0000e-01	1.3053e+02	1.3053e+02	2.0919e-08
2.5000e-01	1.1787e+02	1.1787e+02	1.8889e-08
3.0000e-01	1.0843e+02	1.0843e+02	1.7377e-08
3.5000e-01	1.0105e+02	1.0105e+02	1.6194e-08
4.0000e-01	9.5059e+01	9.5059e+01	1.5234e-08
4.5000e-01	8.9888e+01	8.9888e+01	1.4405e-08
5.0000e-01	8.5131e+01	8.5131e+01	1.3643e-08
5.5000e-01	8.0872e+01	8.0872e+01	1.2960e-08
6.0000e-01	7.7043e+01	7.7043e+01	1.2347e-08
6.5000e-01	7.3585e+01	7.3585e+01	1.1792e-08
7.0000e-01	7.0449e+01	7.0449e+01	1.1290e-08
7.5000e-01	6.7591e+01	6.7591e+01	1.0832e-08
8.0000e-01	6.4978e+01	6.4978e+01	1.0413e-08
8.5000e-01	6.2577e+01	6.2577e+01	1.0028e-08
9.0000e-01	6.0364e+01	6.0364e+01	9.6738e-09
9.5000e-01	5.8318e+01	5.8318e+01	9.3458e-09
1.0000e+00	5.6420e+01	5.6420e+01	9.0416e-09
1.5000e+00	4.2928e+01	4.2928e+01	6.8794e-09
2.0000e+00	3.4978e+01	3.4978e+01	5.6054e-09
2.5000e+00	2.9682e+01	2.9682e+01	4.7568e-09
3.0000e+00	2.5877e+01	2.5877e+01	4.1470e-09
3.5000e+00	2.2997e+01	2.2997e+01	3.6855e-09
4.0000e+00	2.0734e+01	2.0734e+01	3.3228e-09
4.5000e+00	1.8904e+01	1.8904e+01	3.0296e-09
5.0000e+00	1.7391e+01	1.7391e+01	2.7871e-09
5.5000e+00	1.6118e+01	1.6118e+01	2.5830e-09
6.0000e+00	1.5029e+01	1.5029e+01	2.4085e-09
6.5000e+00	1.4087e+01	1.4087e+01	2.2575e-09
7.0000e+00	1.3263e+01	1.3263e+01	2.1255e-09
7.5000e+00	1.2536e+01	1.2536e+01	2.0089e-09
8.0000e+00	1.1889e+01	1.1889e+01	1.9052e-09
8.5000e+00	1.1309e+01	1.1309e+01	1.8123e-09
9.0000e+00	1.0786e+01	1.0786e+01	1.7286e-09
9.5000e+00	1.0312e+01	1.0312e+01	1.6526e-09
1.0000e+01	9.8807e+00	9.8807e+00	1.5834e-09
1.5000e+01	7.0125e+00	7.0125e+00	1.1238e-09
2.0000e+01	5.4707e+00	5.4707e+00	8.7671e-10
2.5000e+01	4.4998e+00	4.4998e+00	7.2112e-10
3.0000e+01	3.8292e+00	3.8292e+00	6.1365e-10
3.5000e+01	3.3368e+00	3.3368e+00	5.3474e-10
4.0000e+01	2.9591e+00	2.9591e+00	4.7422e-10
4.5000e+01	2.6599e+00	2.6599e+00	4.2626e-10
5.0000e+01	2.4167e+00	2.4167e+00	3.8729e-10
5.5000e+01	2.2150e+00	2.2150e+00	3.5497e-10
6.0000e+01	2.0450e+00	2.0450e+00	3.2772e-10
6.5000e+01	1.8996e+00	1.8996e+00	3.0443e-10
7.0000e+01	1.7739e+00	1.7739e+00	2.8427e-10
7.5000e+01	1.6640e+00	1.6640e+00	2.6666e-10
8.0000e+01	1.5671e+00	1.5671e+00	2.5114e-10
8.5000e+01	1.4811e+00	1.4811e+00	2.3735e-10
9.0000e+01	1.4041e+00	1.4041e+00	2.2502e-10
9.5000e+01	1.3349e+00	1.3349e+00	2.1392e-10
1.0000e+02	1.2722e+00	1.2722e+00	2.0389e-10
1.5000e+02	8.6797e-01	8.6797e-01	1.3910e-10
2.0000e+02	6.6040e-01	6.6040e-01	1.0583e-10
2.5000e+02	5.3389e-01	5.3389e-01	8.5560e-11
3.0000e+02	4.4869e-01	4.4869e-01	7.1905e-11
3.5000e+02	3.8738e-01	3.8738e-01	6.2080e-11
4.0000e+02	3.4115e-01	3.4115e-01	5.4671e-11
4.5000e+02	3.0503e-01	3.0503e-01	4.8884e-11
5.0000e+02	2.7605e-01	2.7605e-01	4.4238e-11
5.5000e+02	2.5226e-01	2.5226e-01	4.0427e-11
6.0000e+02	2.3240e-01	2.3240e-01	3.7243e-11
6.5000e+02	2.1556e-01	2.1556e-01	3.4544e-11
7.0000e+02	2.0110e-01	2.0110e-01	3.2227e-11
7.5000e+02	1.8855e-01	1.8855e-01	3.0216e-11
8.0000e+02	1.7755e-01	1.7755e-01	2.8454e-11
8.5000e+02	1.6784e-01	1.6784e-01	2.6898e-11
9.0000e+02	1.5920e-01	1.5920e-01	2.5513e-11
9.5000e+02	1.5146e-01	1.5146e-01	2.4273e-11
1.0000e+03	1.4449e-01	1.4449e-01	2.3156e-11
5.0000e+03	3.8149e-02	3.8149e-02	6.1136e-12
1.0000e+04	2.5059e-02	2.5059e-02	4.0159e-12
5.0000e+04	1.5609e-02	1.5609e-02	2.5014e-12
1.0000e+05	1.4825e-02	1.4825e-02	2.3758e-12
* The mediun has to to be thick enough to fully absorb the kinetic energy of recoil nuclei.